    Energy    <xanes>    
  30451.00  1.1072254E-03
  30451.50  1.1241963E-03
  30452.00  1.1416446E-03
  30452.50  1.1595899E-03
  30453.00  1.1780527E-03
  30453.50  1.1970551E-03
  30454.00  1.2166199E-03
  30454.50  1.2367714E-03
  30455.00  1.2575354E-03
  30455.50  1.2789390E-03
  30456.00  1.3010109E-03
  30456.50  1.3237816E-03
  30457.00  1.3472833E-03
  30457.50  1.3715502E-03
  30458.00  1.3966185E-03
  30458.50  1.4225268E-03
  30459.00  1.4493162E-03
  30459.50  1.4770300E-03
  30460.00  1.5057148E-03
  30460.50  1.5354201E-03
  30461.00  1.5661985E-03
  30461.50  1.5981064E-03
  30462.00  1.6312039E-03
  30462.50  1.6655554E-03
  30463.00  1.7012299E-03
  30463.50  1.7383013E-03
  30464.00  1.7768487E-03
  30464.50  1.8169573E-03
  30465.00  1.8587187E-03
  30465.50  1.9022315E-03
  30466.00  1.9476018E-03
  30466.50  1.9949443E-03
  30467.00  2.0443829E-03
  30467.50  2.0960515E-03
  30468.00  2.1500953E-03
  30468.50  2.2066718E-03
  30469.00  2.2659520E-03
  30469.50  2.3281220E-03
  30470.00  2.3933845E-03
  30470.50  2.4619609E-03
  30471.00  2.5340928E-03
  30471.50  2.6100452E-03
  30472.00  2.6901082E-03
  30472.50  2.7746010E-03
  30473.00  2.8638744E-03
  30473.50  2.9583157E-03
  30474.00  3.0583526E-03
  30474.50  3.1644585E-03
  30475.00  3.2771587E-03
  30475.50  3.3970371E-03
  30476.00  3.5247446E-03
  30476.50  3.6610077E-03
  30477.00  3.8066398E-03
  30477.50  3.9625539E-03
  30478.00  4.1297766E-03
  30478.50  4.3094659E-03
  30479.00  4.5029311E-03
  30479.50  4.7116566E-03
  30480.00  4.9373296E-03
  30480.50  5.1818733E-03
  30481.00  5.4474850E-03
  30481.50  5.7366826E-03
  30482.00  6.0523577E-03
  30482.50  6.3978388E-03
  30483.00  6.7769650E-03
  30483.50  7.1941711E-03
  30484.00  7.6545846E-03
  30484.50  8.1641341E-03
  30485.00  8.7296665E-03
  30485.50  9.3590664E-03
  30486.00  1.0061366E-02
  30486.10  1.0211455E-02
  30486.20  1.0364954E-02
  30486.30  1.0521953E-02
  30486.40  1.0682546E-02
  30486.50  1.0846824E-02
  30486.60  1.1014886E-02
  30486.70  1.1186828E-02
  30486.80  1.1362750E-02
  30486.90  1.1542753E-02
  30487.00  1.1726941E-02
  30487.10  1.1915419E-02
  30487.20  1.2108291E-02
  30487.30  1.2305667E-02
  30487.40  1.2507654E-02
  30487.50  1.2714361E-02
  30487.60  1.2925900E-02
  30487.70  1.3142382E-02
  30487.80  1.3363917E-02
  30487.90  1.3590617E-02
  30488.00  1.3822595E-02
  30488.10  1.4059961E-02
  30488.20  1.4302825E-02
  30488.30  1.4551297E-02
  30488.40  1.4805484E-02
  30488.50  1.5065493E-02
  30488.60  1.5331429E-02
  30488.70  1.5603391E-02
  30488.80  1.5881479E-02
  30488.90  1.6165788E-02
  30489.00  1.6456407E-02
  30489.10  1.6753425E-02
  30489.20  1.7056923E-02
  30489.30  1.7366976E-02
  30489.40  1.7683655E-02
  30489.50  1.8007025E-02
  30489.60  1.8337142E-02
  30489.70  1.8674056E-02
  30489.80  1.9017808E-02
  30489.90  1.9368433E-02
  30490.00  1.9725953E-02
  30490.10  2.0090385E-02
  30490.20  2.0461733E-02
  30490.30  2.0839992E-02
  30490.40  2.1225144E-02
  30490.50  2.1617161E-02
  30490.60  2.2016003E-02
  30490.70  2.2421615E-02
  30490.80  2.2833930E-02
  30490.90  2.3252865E-02
  30491.00  2.3678322E-02
  30491.10  2.4110197E-02
  30491.20  2.4548345E-02
  30491.30  2.4992587E-02
  30491.40  2.5442718E-02
  30491.50  2.5898510E-02
  30491.60  2.6359708E-02
  30491.70  2.6826032E-02
  30491.80  2.7297169E-02
  30491.90  2.7772777E-02
  30492.00  2.8252482E-02
  30492.10  2.8735873E-02
  30492.20  2.9222503E-02
  30492.30  2.9711889E-02
  30492.40  3.0203508E-02
  30492.50  3.0696795E-02
  30492.60  3.1191147E-02
  30492.70  3.1685918E-02
  30492.80  3.2180423E-02
  30492.90  3.2673936E-02
  30493.00  3.3165691E-02
  30493.10  3.3654887E-02
  30493.20  3.4140689E-02
  30493.30  3.4622229E-02
  30493.40  3.5098613E-02
  30493.50  3.5568924E-02
  30493.60  3.6032228E-02
  30493.70  3.6487579E-02
  30493.80  3.6934023E-02
  30493.90  3.7370611E-02
  30494.00  3.7796396E-02
  30494.10  3.8210450E-02
  30494.20  3.8611865E-02
  30494.30  3.8999760E-02
  30494.40  3.9373292E-02
  30494.50  3.9731658E-02
  30494.60  4.0074103E-02
  30494.70  4.0399928E-02
  30494.80  4.0708491E-02
  30494.90  4.0999212E-02
  30495.00  4.1271582E-02
  30495.10  4.1525157E-02
  30495.20  4.1759569E-02
  30495.30  4.1974521E-02
  30495.40  4.2169790E-02
  30495.50  4.2345227E-02
  30495.60  4.2500755E-02
  30495.70  4.2636368E-02
  30495.80  4.2752129E-02
  30495.90  4.2848166E-02
  30496.00  4.2924670E-02
  30496.20  4.3020137E-02
  30496.40  4.3041168E-02
  30496.60  4.2991152E-02
  30496.80  4.2874094E-02
  30497.00  4.2694483E-02
  30497.20  4.2457172E-02
  30497.40  4.2167260E-02
  30497.60  4.1830003E-02
  30497.80  4.1450719E-02
  30498.00  4.1034717E-02
  30498.20  4.0587235E-02
  30498.40  4.0113372E-02
  30498.60  3.9618049E-02
  30498.80  3.9105956E-02
  30499.00  3.8581513E-02
  30499.20  3.8048841E-02
  30499.40  3.7511735E-02
  30499.60  3.6973639E-02
  30499.80  3.6437643E-02
  30500.00  3.5906468E-02
  30500.20  3.5382481E-02
  30500.40  3.4867694E-02
  30500.60  3.4363787E-02
  30500.80  3.3872129E-02
  30501.00  3.3393800E-02
  30501.20  3.2929627E-02
  30501.40  3.2480206E-02
  30501.60  3.2045939E-02
  30501.80  3.1627066E-02
  30502.00  3.1223689E-02
  30502.20  3.0835807E-02
  30502.40  3.0463333E-02
  30502.60  3.0106124E-02
  30502.80  2.9763991E-02
  30503.00  2.9436722E-02
  30503.20  2.9124084E-02
  30503.40  2.8825841E-02
  30503.60  2.8541749E-02
  30503.80  2.8271565E-02
  30504.00  2.8015041E-02
  30504.20  2.7771925E-02
  30504.40  2.7541958E-02
  30504.60  2.7324865E-02
  30504.80  2.7120353E-02
  30505.00  2.6928107E-02
  30505.20  2.6747782E-02
  30505.40  2.6579002E-02
  30505.60  2.6421356E-02
  30505.80  2.6274396E-02
  30506.00  2.6137635E-02
  30506.20  2.6010551E-02
  30506.40  2.5892586E-02
  30506.60  2.5783148E-02
  30506.80  2.5681618E-02
  30507.00  2.5587349E-02
  30507.20  2.5499678E-02
  30507.40  2.5417926E-02
  30507.60  2.5341406E-02
  30507.80  2.5269430E-02
  30508.00  2.5201314E-02
  30508.20  2.5136384E-02
  30508.40  2.5073982E-02
  30508.60  2.5013475E-02
  30508.80  2.4954256E-02
  30509.00  2.4895750E-02
  30509.20  2.4837422E-02
  30509.40  2.4778777E-02
  30509.60  2.4719363E-02
  30509.80  2.4658778E-02
  30510.00  2.4596669E-02
  30510.20  2.4532733E-02
  30510.40  2.4466717E-02
  30510.60  2.4398422E-02
  30510.80  2.4327699E-02
  30511.00  2.4254447E-02
  30512.00  2.3850038E-02
  30513.00  2.3392236E-02
  30514.00  2.2909009E-02
  30515.00  2.2436829E-02
  30516.00  2.2011093E-02
  30517.00  2.1659366E-02
  30518.00  2.1398031E-02
  30519.00  2.1232104E-02
  30520.00  2.1157450E-02
  30521.00  2.1164262E-02
  30522.00  2.1240611E-02
  30523.00  2.1375143E-02
  30524.00  2.1558515E-02
  30525.00  2.1783629E-02
  30526.00  2.2045031E-02
  30527.00  2.2337926E-02
  30528.00  2.2657217E-02
  30529.00  2.2996899E-02
  30530.00  2.3349979E-02
  30531.00  2.3708909E-02
  30532.00  2.4066363E-02
  30533.00  2.4416066E-02
  30534.00  2.4753444E-02
  30535.00  2.5075918E-02
  30536.00  2.5382815E-02
  30537.00  2.5674953E-02
  30538.00  2.5953995E-02
  30539.00  2.6221717E-02
  30540.00  2.6479323E-02
  30541.00  2.6726917E-02
  30542.00  2.6963235E-02
  30543.00  2.7185641E-02
  30544.00  2.7390395E-02
  30545.00  2.7573104E-02
  30546.00  2.7729276E-02
  30547.00  2.7854881E-02
  30548.00  2.7946827E-02
  30549.00  2.8003294E-02
  30550.00  2.8023920E-02
  30551.00  2.8009821E-02
  30552.00  2.7963511E-02
  30553.00  2.7888711E-02
  30554.00  2.7790099E-02
  30555.00  2.7672978E-02
  30556.00  2.7542898E-02
  30557.00  2.7405234E-02
  30558.00  2.7264780E-02
  30559.00  2.7125401E-02
  30560.00  2.6989827E-02
  30561.00  2.6859581E-02
  30562.00  2.6735077E-02
  30563.00  2.6615825E-02
  30564.00  2.6500726E-02
  30565.00  2.6388391E-02
  30566.00  2.6277451E-02
  30567.00  2.6166837E-02
  30568.00  2.6055983E-02
  30569.00  2.5944960E-02
  30570.00  2.5834512E-02
  30571.00  2.5725992E-02
  30572.00  2.5621212E-02
  30573.00  2.5522223E-02
  30574.00  2.5431059E-02
  30575.00  2.5349492E-02
  30576.00  2.5278826E-02
  30577.00  2.5219758E-02
  30578.00  2.5172302E-02
  30579.00  2.5135774E-02
  30580.00  2.5108824E-02
  30581.00  2.5089515E-02
  30582.00  2.5075443E-02
  30583.00  2.5063913E-02
  30584.00  2.5052170E-02
  30585.00  2.5037655E-02
  30586.00  2.5018272E-02
  30587.00  2.4992616E-02
  30588.00  2.4960101E-02
  30589.00  2.4920974E-02
  30590.00  2.4876201E-02
  30591.00  2.4827246E-02
