    Energy    <xanes>    
   7072.00  5.4196602E-04
   7072.50  5.4866634E-04
   7073.00  5.5552439E-04
   7073.50  5.6254579E-04
   7074.00  5.6973641E-04
   7074.50  5.7710240E-04
   7075.00  5.8465022E-04
   7075.50  5.9238667E-04
   7076.00  6.0031885E-04
   7076.50  6.0845426E-04
   7077.00  6.1680077E-04
   7077.50  6.2536665E-04
   7078.00  6.3416062E-04
   7078.50  6.4319187E-04
   7079.00  6.5247008E-04
   7079.50  6.6200547E-04
   7080.00  6.7180882E-04
   7080.50  6.8189153E-04
   7081.00  6.9226565E-04
   7081.50  7.0294393E-04
   7082.00  7.1393986E-04
   7082.50  7.2526777E-04
   7083.00  7.3694283E-04
   7083.50  7.4898117E-04
   7084.00  7.6139991E-04
   7084.50  7.7421727E-04
   7085.00  7.8745266E-04
   7085.50  8.0112675E-04
   7086.00  8.1526159E-04
   7086.50  8.2988075E-04
   7087.00  8.4500941E-04
   7087.50  8.6067453E-04
   7088.00  8.7690500E-04
   7088.50  8.9373180E-04
   7089.00  9.1118824E-04
   7089.50  9.2931013E-04
   7090.00  9.4813605E-04
   7090.50  9.6770759E-04
   7091.00  9.8806971E-04
   7091.50  1.0092710E-03
   7092.00  1.0313642E-03
   7092.50  1.0544064E-03
   7093.00  1.0784598E-03
   7093.50  1.1035921E-03
   7094.00  1.1298770E-03
   7094.50  1.1573955E-03
   7095.00  1.1862358E-03
   7095.50  1.2164952E-03
   7096.00  1.2482803E-03
   7096.50  1.2817091E-03
   7097.00  1.3169117E-03
   7097.50  1.3540325E-03
   7098.00  1.3932320E-03
   7098.50  1.4346890E-03
   7099.00  1.4786035E-03
   7099.50  1.5251999E-03
   7100.00  1.5747306E-03
   7100.50  1.6274811E-03
   7101.00  1.6837747E-03
   7101.50  1.7439802E-03
   7102.00  1.8085192E-03
   7102.50  1.8778764E-03
   7103.00  1.9526121E-03
   7103.50  2.0333772E-03
   7104.00  2.1209331E-03
   7104.50  2.2161757E-03
   7105.00  2.3201676E-03
   7105.50  2.4341787E-03
   7106.00  2.5597409E-03
   7106.50  2.6987203E-03
   7107.00  2.8534164E-03
   7107.10  2.8864823E-03
   7107.20  2.9203154E-03
   7107.30  2.9549433E-03
   7107.40  2.9903948E-03
   7107.50  3.0267002E-03
   7107.60  3.0638914E-03
   7107.70  3.1020018E-03
   7107.80  3.1410667E-03
   7107.90  3.1811234E-03
   7108.00  3.2222109E-03
   7108.10  3.2643708E-03
   7108.20  3.3076467E-03
   7108.30  3.3520849E-03
   7108.40  3.3977344E-03
   7108.50  3.4446470E-03
   7108.60  3.4928779E-03
   7108.70  3.5424857E-03
   7108.80  3.5935325E-03
   7108.90  3.6460848E-03
   7109.00  3.7002133E-03
   7109.10  3.7559938E-03
   7109.20  3.8135073E-03
   7109.30  3.8728407E-03
   7109.40  3.9340874E-03
   7109.50  3.9973481E-03
   7109.60  4.0627315E-03
   7109.70  4.1303552E-03
   7109.80  4.2003470E-03
   7109.90  4.2728460E-03
   7110.00  4.3480044E-03
   7110.10  4.4259890E-03
   7110.20  4.5069838E-03
   7110.30  4.5911923E-03
   7110.40  4.6788413E-03
   7110.50  4.7701844E-03
   7110.60  4.8655071E-03
   7110.70  4.9651329E-03
   7110.80  5.0694306E-03
   7110.90  5.1788233E-03
   7111.00  5.2937977E-03
   7111.10  5.4149156E-03
   7111.20  5.5428214E-03
   7111.30  5.6782450E-03
   7111.40  5.8219860E-03
   7111.50  5.9748659E-03
   7111.60  6.1376245E-03
   7111.70  6.3107504E-03
   7111.80  6.4942844E-03
   7111.90  6.6877192E-03
   7112.00  6.8904620E-03
   7112.10  7.1024342E-03
   7112.20  7.3235039E-03
   7112.30  7.5543664E-03
   7112.40  7.7965135E-03
   7112.50  8.0520167E-03
   7112.60  8.3233310E-03
   7112.70  8.6131898E-03
   7112.80  8.9245899E-03
   7112.90  9.2608368E-03
   7113.00  9.6256264E-03
   7113.10  1.0023148E-02
   7113.20  1.0458203E-02
   7113.30  1.0936320E-02
   7113.40  1.1463861E-02
   7113.50  1.2048084E-02
   7113.60  1.2697094E-02
   7113.70  1.3419599E-02
   7113.80  1.4224302E-02
   7113.90  1.5118724E-02
   7114.00  1.6107272E-02
   7114.10  1.7188583E-02
   7114.20  1.8352775E-02
   7114.30  1.9580260E-02
   7114.40  2.0844491E-02
   7114.50  2.2120065E-02
   7114.60  2.3393960E-02
   7114.70  2.4673731E-02
   7114.80  2.5987064E-02
   7114.90  2.7372969E-02
   7115.00  2.8870452E-02
   7115.10  3.0510783E-02
   7115.20  3.2315764E-02
   7115.30  3.4300928E-02
   7115.40  3.6480784E-02
   7115.50  3.8872895E-02
   7115.60  4.1498404E-02
   7115.70  4.4378521E-02
   7115.80  4.7528727E-02
   7115.90  5.0953560E-02
   7116.00  5.4644219E-02
   7116.10  5.8579398E-02
   7116.20  6.2728218E-02
   7116.30  6.7054264E-02
   7116.40  7.1520942E-02
   7116.50  7.6098458E-02
   7116.60  8.0770466E-02
   7116.70  8.5535741E-02
   7116.80  9.0400473E-02
   7116.90  9.5360788E-02
   7117.00  1.0038031E-01
   7117.20  1.1018423E-01
   7117.40  1.1845942E-01
   7117.60  1.2358661E-01
   7117.80  1.2488186E-01
   7118.00  1.2318421E-01
   7118.20  1.2014837E-01
   7118.40  1.1718402E-01
   7118.60  1.1507045E-01
   7118.80  1.1411974E-01
   7119.00  1.1436897E-01
   7119.20  1.1562795E-01
   7119.40  1.1746463E-01
   7119.60  1.1925933E-01
   7119.80  1.2041384E-01
   7120.00  1.2062903E-01
   7120.20  1.2000848E-01
   7120.40  1.1888686E-01
   7120.60  1.1757103E-01
   7120.80  1.1621879E-01
   7121.00  1.1488518E-01
   7121.20  1.1361519E-01
   7121.40  1.1247862E-01
   7121.60  1.1154977E-01
   7121.80  1.1088923E-01
   7122.00  1.1055292E-01
   7122.20  1.1060600E-01
   7122.40  1.1111670E-01
   7122.60  1.1213300E-01
   7122.80  1.1365996E-01
   7123.00  1.1564820E-01
   7123.20  1.1799728E-01
   7123.40  1.2057540E-01
   7123.60  1.2324980E-01
   7123.80  1.2591465E-01
   7124.00  1.2850348E-01
   7124.20  1.3098414E-01
   7124.40  1.3334450E-01
   7124.60  1.3557840E-01
   7124.80  1.3767653E-01
   7125.00  1.3962301E-01
   7125.20  1.4139649E-01
   7125.40  1.4297475E-01
   7125.60  1.4434040E-01
   7125.80  1.4548495E-01
   7126.00  1.4640941E-01
   7126.20  1.4712219E-01
   7126.40  1.4763634E-01
   7126.60  1.4796782E-01
   7126.80  1.4813445E-01
   7127.00  1.4815467E-01
   7127.20  1.4804539E-01
   7127.40  1.4781949E-01
   7127.60  1.4748378E-01
   7127.80  1.4703854E-01
   7128.00  1.4647865E-01
   7128.20  1.4579612E-01
   7128.40  1.4498343E-01
   7128.60  1.4403671E-01
   7128.80  1.4295825E-01
   7129.00  1.4175786E-01
   7129.20  1.4045278E-01
   7129.40  1.3906656E-01
   7129.60  1.3762707E-01
   7129.80  1.3616430E-01
   7130.00  1.3470808E-01
   7130.20  1.3328626E-01
   7130.40  1.3192331E-01
   7130.60  1.3063945E-01
   7130.80  1.2945030E-01
   7131.00  1.2836687E-01
   7131.20  1.2739592E-01
   7131.40  1.2654052E-01
   7131.60  1.2580068E-01
   7131.80  1.2517407E-01
   7132.00  1.2465668E-01
   7133.00  1.2350552E-01
   7134.00  1.2410594E-01
   7135.00  1.2536098E-01
   7136.00  1.2602194E-01
   7137.00  1.2525148E-01
   7138.00  1.2293851E-01
   7139.00  1.1944781E-01
   7140.00  1.1527659E-01
   7141.00  1.1090409E-01
   7142.00  1.0675134E-01
   7143.00  1.0315785E-01
   7144.00  1.0035645E-01
   7145.00  9.8458038E-02
   7146.00  9.7462712E-02
   7147.00  9.7291390E-02
   7148.00  9.7817172E-02
   7149.00  9.8887425E-02
   7150.00  1.0034285E-01
   7151.00  1.0203668E-01
   7152.00  1.0384685E-01
   7153.00  1.0567649E-01
   7154.00  1.0744995E-01
   7155.00  1.0911361E-01
   7156.00  1.1064080E-01
   7157.00  1.1203325E-01
   7158.00  1.1331592E-01
   7159.00  1.1453132E-01
   7160.00  1.1573872E-01
   7161.00  1.1701382E-01
   7162.00  1.1843946E-01
   7163.00  1.2008490E-01
   7164.00  1.2198256E-01
   7165.00  1.2411323E-01
   7166.00  1.2640519E-01
   7167.00  1.2874593E-01
   7168.00  1.3100115E-01
   7169.00  1.3303482E-01
   7170.00  1.3472615E-01
   7171.00  1.3598300E-01
   7172.00  1.3675387E-01
   7173.00  1.3703674E-01
   7174.00  1.3687958E-01
   7175.00  1.3636852E-01
   7176.00  1.3560687E-01
   7177.00  1.3469296E-01
   7178.00  1.3370510E-01
   7179.00  1.3269740E-01
   7180.00  1.3170497E-01
   7181.00  1.3075396E-01
   7182.00  1.2987042E-01
   7183.00  1.2908354E-01
   7184.00  1.2842225E-01
   7185.00  1.2790800E-01
   7186.00  1.2754782E-01
   7187.00  1.2733051E-01
   7188.00  1.2722637E-01
   7189.00  1.2719074E-01
   7190.00  1.2717149E-01
   7191.00  1.2711954E-01
   7192.00  1.2700003E-01
   7193.00  1.2679993E-01
   7194.00  1.2652934E-01
   7195.00  1.2621613E-01
   7196.00  1.2589710E-01
   7197.00  1.2560918E-01
   7198.00  1.2538313E-01
   7199.00  1.2524014E-01
   7200.00  1.2519016E-01
   7201.00  1.2523144E-01
   7202.00  1.2535117E-01
   7203.00  1.2552770E-01
   7204.00  1.2573425E-01
   7205.00  1.2594313E-01
   7206.00  1.2612954E-01
   7207.00  1.2627420E-01
   7208.00  1.2636502E-01
   7209.00  1.2639798E-01
   7210.00  1.2637714E-01
   7211.00  1.2631334E-01
   7212.00  1.2622134E-01
