    Energy    <xanes>    
   5949.00  8.5879215E-04
   5949.50  8.6905021E-04
   5950.00  8.7954076E-04
   5950.50  8.9027176E-04
   5951.00  9.0125150E-04
   5951.50  9.1248869E-04
   5952.00  9.2399243E-04
   5952.50  9.3577226E-04
   5953.00  9.4783818E-04
   5953.50  9.6020068E-04
   5954.00  9.7287076E-04
   5954.50  9.8585999E-04
   5955.00  9.9918049E-04
   5955.50  1.0128450E-03
   5956.00  1.0268670E-03
   5956.50  1.0412607E-03
   5957.00  1.0560407E-03
   5957.50  1.0712230E-03
   5958.00  1.0868240E-03
   5958.50  1.1028612E-03
   5959.00  1.1193530E-03
   5959.50  1.1363190E-03
   5960.00  1.1537798E-03
   5960.50  1.1717572E-03
   5961.00  1.1902744E-03
   5961.50  1.2093560E-03
   5962.00  1.2290280E-03
   5962.50  1.2493181E-03
   5963.00  1.2702557E-03
   5963.50  1.2918723E-03
   5964.00  1.3142013E-03
   5964.50  1.3372782E-03
   5965.00  1.3611412E-03
   5965.50  1.3858309E-03
   5966.00  1.4113909E-03
   5966.50  1.4378678E-03
   5967.00  1.4653117E-03
   5967.50  1.4937763E-03
   5968.00  1.5233195E-03
   5968.50  1.5540036E-03
   5969.00  1.5858958E-03
   5969.50  1.6190687E-03
   5970.00  1.6536008E-03
   5970.50  1.6895772E-03
   5971.00  1.7270903E-03
   5971.50  1.7662407E-03
   5972.00  1.8071378E-03
   5972.50  1.8499011E-03
   5973.00  1.8946614E-03
   5973.50  1.9415621E-03
   5974.00  1.9907605E-03
   5974.50  2.0424303E-03
   5975.00  2.0967628E-03
   5975.50  2.1539704E-03
   5976.00  2.2142883E-03
   5976.50  2.2779788E-03
   5977.00  2.3453351E-03
   5977.50  2.4166855E-03
   5978.00  2.4923998E-03
   5978.50  2.5728957E-03
   5979.00  2.6586471E-03
   5979.50  2.7501943E-03
   5980.00  2.8481561E-03
   5980.50  2.9532455E-03
   5981.00  3.0662889E-03
   5981.50  3.1882502E-03
   5982.00  3.3202622E-03
   5982.50  3.4636670E-03
   5983.00  3.6200689E-03
   5983.50  3.7914052E-03
   5984.00  3.9800414E-03
   5984.10  4.0200904E-03
   5984.20  4.0609725E-03
   5984.30  4.1027156E-03
   5984.40  4.1453487E-03
   5984.50  4.1889023E-03
   5984.60  4.2334083E-03
   5984.70  4.2789003E-03
   5984.80  4.3254133E-03
   5984.90  4.3729843E-03
   5985.00  4.4216521E-03
   5985.10  4.4714573E-03
   5985.20  4.5224429E-03
   5985.30  4.5746539E-03
   5985.40  4.6281378E-03
   5985.50  4.6829446E-03
   5985.60  4.7391267E-03
   5985.70  4.7967397E-03
   5985.80  4.8558418E-03
   5985.90  4.9164946E-03
   5986.00  4.9787628E-03
   5986.10  5.0427145E-03
   5986.20  5.1084216E-03
   5986.30  5.1759594E-03
   5986.40  5.2454072E-03
   5986.50  5.3168482E-03
   5986.60  5.3903693E-03
   5986.70  5.4660615E-03
   5986.80  5.5440196E-03
   5986.90  5.6243419E-03
   5987.00  5.7071303E-03
   5987.10  5.7924893E-03
   5987.20  5.8805259E-03
   5987.30  5.9713487E-03
   5987.40  6.0650665E-03
   5987.50  6.1617878E-03
   5987.60  6.2616187E-03
   5987.70  6.3646618E-03
   5987.80  6.4710137E-03
   5987.90  6.5807637E-03
   5988.00  6.6939915E-03
   5988.10  6.8107656E-03
   5988.20  6.9311420E-03
   5988.30  7.0551638E-03
   5988.40  7.1828613E-03
   5988.50  7.3142540E-03
   5988.60  7.4493537E-03
   5988.70  7.5881693E-03
   5988.80  7.7307132E-03
   5988.90  7.8770089E-03
   5989.00  8.0270993E-03
   5989.10  8.1812223E-03
   5989.20  8.3396586E-03
   5989.30  8.5025685E-03
   5989.40  8.6701598E-03
   5989.50  8.8426897E-03
   5989.60  9.0204641E-03
   5989.70  9.2038348E-03
   5989.80  9.3931947E-03
   5989.90  9.5889731E-03
   5990.00  9.7916302E-03
   5990.10  1.0001653E-02
   5990.20  1.0219553E-02
   5990.30  1.0445866E-02
   5990.40  1.0681153E-02
   5990.50  1.0926002E-02
   5990.60  1.1181036E-02
   5990.70  1.1446912E-02
   5990.80  1.1724330E-02
   5990.90  1.2014034E-02
   5991.00  1.2316807E-02
   5991.10  1.2633475E-02
   5991.20  1.2964894E-02
   5991.30  1.3311945E-02
   5991.40  1.3675515E-02
   5991.50  1.4056484E-02
   5991.60  1.4455700E-02
   5991.70  1.4873955E-02
   5991.80  1.5311958E-02
   5991.90  1.5770301E-02
   5992.00  1.6249421E-02
   5992.10  1.6749566E-02
   5992.20  1.7270746E-02
   5992.30  1.7812695E-02
   5992.40  1.8374828E-02
   5992.50  1.8956201E-02
   5992.60  1.9555479E-02
   5992.70  2.0170916E-02
   5992.80  2.0800344E-02
   5992.90  2.1441185E-02
   5993.00  2.2090482E-02
   5993.10  2.2744951E-02
   5993.20  2.3401064E-02
   5993.30  2.4055143E-02
   5993.40  2.4703477E-02
   5993.50  2.5342454E-02
   5993.60  2.5968683E-02
   5993.70  2.6579119E-02
   5993.80  2.7171172E-02
   5993.90  2.7742781E-02
   5994.00  2.8292479E-02
   5994.20  2.9323317E-02
   5994.40  3.0263914E-02
   5994.60  3.1122766E-02
   5994.80  3.1914429E-02
   5995.00  3.2657055E-02
   5995.20  3.3370187E-02
   5995.40  3.4073065E-02
   5995.60  3.4783465E-02
   5995.80  3.5516977E-02
   5996.00  3.6286581E-02
   5996.20  3.7102423E-02
   5996.40  3.7971761E-02
   5996.60  3.8899060E-02
   5996.80  3.9886249E-02
   5997.00  4.0933149E-02
   5997.20  4.2038029E-02
   5997.40  4.3198249E-02
   5997.60  4.4410871E-02
   5997.80  4.5673135E-02
   5998.00  4.6982684E-02
   5998.20  4.8337473E-02
   5998.40  4.9735417E-02
   5998.60  5.1173886E-02
   5998.80  5.2649205E-02
   5999.00  5.4156321E-02
   5999.20  5.5688704E-02
   5999.40  5.7238465E-02
   5999.60  5.8796577E-02
   5999.80  6.0353081E-02
   6000.00  6.1897132E-02
   6000.20  6.3416860E-02
   6000.40  6.4899089E-02
   6000.60  6.6329054E-02
   6000.80  6.7690291E-02
   6001.00  6.8964894E-02
   6001.20  7.0134238E-02
   6001.40  7.1180192E-02
   6001.60  7.2086683E-02
   6001.80  7.2841356E-02
   6002.00  7.3437019E-02
   6002.20  7.3872555E-02
   6002.40  7.4153099E-02
   6002.60  7.4289447E-02
   6002.80  7.4296823E-02
   6003.00  7.4193269E-02
   6003.20  7.3997957E-02
   6003.40  7.3729701E-02
   6003.60  7.3405826E-02
   6003.80  7.3041475E-02
   6004.00  7.2649329E-02
   6004.20  7.2239627E-02
   6004.40  7.1820401E-02
   6004.60  7.1397807E-02
   6004.80  7.0976471E-02
   6005.00  7.0559807E-02
   6005.20  7.0150283E-02
   6005.40  6.9749625E-02
   6005.60  6.9358980E-02
   6005.80  6.8979030E-02
   6006.00  6.8610092E-02
   6006.20  6.8252192E-02
   6006.40  6.7905133E-02
   6006.60  6.7568556E-02
   6006.80  6.7241993E-02
   6007.00  6.6924912E-02
   6007.20  6.6616754E-02
   6007.40  6.6316964E-02
   6007.60  6.6025003E-02
   6007.80  6.5740354E-02
   6008.00  6.5462523E-02
   6008.20  6.5191024E-02
   6008.40  6.4925369E-02
   6008.60  6.4665051E-02
   6008.80  6.4409536E-02
   6009.00  6.4158250E-02
   6010.00  6.2943188E-02
   6011.00  6.1743559E-02
   6012.00  6.0527533E-02
   6013.00  5.9332125E-02
   6014.00  5.8234875E-02
   6015.00  5.7312968E-02
   6016.00  5.6619701E-02
   6017.00  5.6180216E-02
   6018.00  5.6000248E-02
   6019.00  5.6076921E-02
   6020.00  5.6401456E-02
   6021.00  5.6953009E-02
   6022.00  5.7691450E-02
   6023.00  5.8557524E-02
   6024.00  5.9483008E-02
   6025.00  6.0406287E-02
   6026.00  6.1284643E-02
   6027.00  6.2096866E-02
   6028.00  6.2836344E-02
   6029.00  6.3500142E-02
   6030.00  6.4080241E-02
   6031.00  6.4560574E-02
   6032.00  6.4920465E-02
   6033.00  6.5142416E-02
   6034.00  6.5220435E-02
   6035.00  6.5164962E-02
   6036.00  6.5002281E-02
   6037.00  6.4769070E-02
   6038.00  6.4504696E-02
   6039.00  6.4244107E-02
   6040.00  6.4013132E-02
   6041.00  6.3826611E-02
   6042.00  6.3688778E-02
   6043.00  6.3594939E-02
   6044.00  6.3533741E-02
   6045.00  6.3489762E-02
   6046.00  6.3446379E-02
   6047.00  6.3388712E-02
   6048.00  6.3306123E-02
   6049.00  6.3193666E-02
   6050.00  6.3052152E-02
   6051.00  6.2886843E-02
   6052.00  6.2705195E-02
   6053.00  6.2514363E-02
   6054.00  6.2319288E-02
   6055.00  6.2121977E-02
   6056.00  6.1922121E-02
   6057.00  6.1718656E-02
   6058.00  6.1511568E-02
   6059.00  6.1303215E-02
   6060.00  6.1098742E-02
   6061.00  6.0905552E-02
   6062.00  6.0732167E-02
   6063.00  6.0586924E-02
   6064.00  6.0476937E-02
   6065.00  6.0407528E-02
   6066.00  6.0382218E-02
   6067.00  6.0403111E-02
   6068.00  6.0471404E-02
   6069.00  6.0587719E-02
   6070.00  6.0752052E-02
   6071.00  6.0963372E-02
   6072.00  6.1219055E-02
   6073.00  6.1514429E-02
   6074.00  6.1842591E-02
   6075.00  6.2194590E-02
   6076.00  6.2559914E-02
   6077.00  6.2927216E-02
   6078.00  6.3285179E-02
   6079.00  6.3623428E-02
   6080.00  6.3933390E-02
   6081.00  6.4208979E-02
   6082.00  6.4447001E-02
   6083.00  6.4647187E-02
   6084.00  6.4811850E-02
   6085.00  6.4945229E-02
   6086.00  6.5052651E-02
   6087.00  6.5139683E-02
   6088.00  6.5211447E-02
   6089.00  6.5272195E-02
