    Energy    <xanes>    
   5949.00  1.5879713E-03
   5949.50  1.6056185E-03
   5950.00  1.6241744E-03
   5950.50  1.6431347E-03
   5951.00  1.6625129E-03
   5951.50  1.6823228E-03
   5952.00  1.7025788E-03
   5952.50  1.7232962E-03
   5953.00  1.7444908E-03
   5953.50  1.7661792E-03
   5954.00  1.7883788E-03
   5954.50  1.8111077E-03
   5955.00  1.8343850E-03
   5955.50  1.8582308E-03
   5956.00  1.8826659E-03
   5956.50  1.9077124E-03
   5957.00  1.9333934E-03
   5957.50  1.9597333E-03
   5958.00  1.9867576E-03
   5958.50  2.0144932E-03
   5959.00  2.0429685E-03
   5959.50  2.0722134E-03
   5960.00  2.1022592E-03
   5960.50  2.1331394E-03
   5961.00  2.1648890E-03
   5961.50  2.1975451E-03
   5962.00  2.2311469E-03
   5962.50  2.2657361E-03
   5963.00  2.3013567E-03
   5963.50  2.3380554E-03
   5964.00  2.3758818E-03
   5964.50  2.4148885E-03
   5965.00  2.4551315E-03
   5965.50  2.4966705E-03
   5966.00  2.5395690E-03
   5966.50  2.5838947E-03
   5967.00  2.6297200E-03
   5967.50  2.6771222E-03
   5968.00  2.7261840E-03
   5968.50  2.7769942E-03
   5969.00  2.8296480E-03
   5969.50  2.8842474E-03
   5970.00  2.9409025E-03
   5970.50  2.9997316E-03
   5971.00  3.0608626E-03
   5971.50  3.1244334E-03
   5972.00  3.1905935E-03
   5972.50  3.2595046E-03
   5973.00  3.3313426E-03
   5973.50  3.4062988E-03
   5974.00  3.4845813E-03
   5974.50  3.5664179E-03
   5975.00  3.6520576E-03
   5975.50  3.7417734E-03
   5976.00  3.8358655E-03
   5976.50  3.9346648E-03
   5977.00  4.0385368E-03
   5977.50  4.1478866E-03
   5978.00  4.2631641E-03
   5978.50  4.3848710E-03
   5979.00  4.5135684E-03
   5979.50  4.6498860E-03
   5980.00  4.7945336E-03
   5980.50  4.9483142E-03
   5981.00  5.1121405E-03
   5981.50  5.2870555E-03
   5982.00  5.4742564E-03
   5982.50  5.6751269E-03
   5983.00  5.8912755E-03
   5983.50  6.1245865E-03
   5984.00  6.3772845E-03
   5984.10  6.4304828E-03
   5984.20  6.4846939E-03
   5984.30  6.5396719E-03
   5984.40  6.5954392E-03
   5984.50  6.6520195E-03
   5984.60  6.7099980E-03
   5984.70  6.7691310E-03
   5984.80  6.8291536E-03
   5984.90  6.8900938E-03
   5985.00  6.9519804E-03
   5985.10  7.0154552E-03
   5985.20  7.0802561E-03
   5985.30  7.1460983E-03
   5985.40  7.2130163E-03
   5985.50  7.2810463E-03
   5985.60  7.3508945E-03
   5985.70  7.4222793E-03
   5985.80  7.4948948E-03
   5985.90  7.5687842E-03
   5986.00  7.6439930E-03
   5986.10  7.7213018E-03
   5986.20  7.8004088E-03
   5986.30  7.8809853E-03
   5986.40  7.9630866E-03
   5986.50  8.0467703E-03
   5986.60  8.1329033E-03
   5986.70  8.2211621E-03
   5986.80  8.3111950E-03
   5986.90  8.4030721E-03
   5987.00  8.4968673E-03
   5987.10  8.5935469E-03
   5987.20  8.6927650E-03
   5987.30  8.7941448E-03
   5987.40  8.8977749E-03
   5987.50  9.0037484E-03
   5987.60  9.1131458E-03
   5987.70  9.2255954E-03
   5987.80  9.3406909E-03
   5987.90  9.4585408E-03
   5988.00  9.5792573E-03
   5988.10  9.7040486E-03
   5988.20  9.8325089E-03
   5988.30  9.9641924E-03
   5988.40  1.0099224E-02
   5988.50  1.0237730E-02
   5988.60  1.0381059E-02
   5988.70  1.0528756E-02
   5988.80  1.0680324E-02
   5988.90  1.0835899E-02
   5989.00  1.0995621E-02
   5989.10  1.1161175E-02
   5989.20  1.1332240E-02
   5989.30  1.1508275E-02
   5989.40  1.1689458E-02
   5989.50  1.1875976E-02
   5989.60  1.2069564E-02
   5989.70  1.2269707E-02
   5989.80  1.2475849E-02
   5989.90  1.2688257E-02
   5990.00  1.2907230E-02
   5990.10  1.3134829E-02
   5990.20  1.3370585E-02
   5990.30  1.3613995E-02
   5990.40  1.3865490E-02
   5990.50  1.4125529E-02
   5990.60  1.4396566E-02
   5990.70  1.4678155E-02
   5990.80  1.4969780E-02
   5990.90  1.5271944E-02
   5991.00  1.5585141E-02
   5991.03  1.5696188E-02
   5991.13  1.6026943E-02
   5991.23  1.6370463E-02
   5991.33  1.6727131E-02
   5991.43  1.7097274E-02
   5991.53  1.7481147E-02
   5991.63  1.7878932E-02
   5991.73  1.8290733E-02
   5991.83  1.8716571E-02
   5991.93  1.9156394E-02
   5992.03  1.9610073E-02
   5992.13  2.0077419E-02
   5992.23  2.0558191E-02
   5992.33  2.1052108E-02
   5992.43  2.1558865E-02
   5992.53  2.2078141E-02
   5992.63  2.2609614E-02
   5992.73  2.3152967E-02
   5992.83  2.3707892E-02
   5992.93  2.4274094E-02
   5993.03  2.4851294E-02
   5993.13  2.5439231E-02
   5993.23  2.6037663E-02
   5993.33  2.6646377E-02
   5993.43  2.7265192E-02
   5993.53  2.7893972E-02
   5993.63  2.8532633E-02
   5993.73  2.9181156E-02
   5993.83  2.9839592E-02
   5993.93  3.0508069E-02
   5994.03  3.1188311E-02
   5994.13  3.1878963E-02
   5994.23  3.2577797E-02
   5994.33  3.3290715E-02
   5994.43  3.4012502E-02
   5994.53  3.4749564E-02
   5994.63  3.5496311E-02
   5994.73  3.6259759E-02
   5994.83  3.7033831E-02
   5994.93  3.7826259E-02
   5995.03  3.8630403E-02
   5995.13  3.9454840E-02
   5995.23  4.0292273E-02
   5995.33  4.1152282E-02
   5995.43  4.2026765E-02
   5995.53  4.2926479E-02
   5995.63  4.3842307E-02
   5995.73  4.4786321E-02
   5995.83  4.5748148E-02
   5995.93  4.6741224E-02
   5996.03  4.7753720E-02
   5996.13  4.8800503E-02
   5996.23  4.9868385E-02
   5996.33  5.0973040E-02
   5996.43  5.2099662E-02
   5996.53  5.3264407E-02
   5996.63  5.4451342E-02
   5996.73  5.5676456E-02
   5996.83  5.6923232E-02
   5996.93  5.8206732E-02
   5997.03  5.9510593E-02
   5997.13  6.0848150E-02
   5997.23  6.2204046E-02
   5997.33  6.3589136E-02
   5997.43  6.4989939E-02
   5997.53  6.6414179E-02
   5997.63  6.7851060E-02
   5997.73  6.9304677E-02
   5997.83  7.0767577E-02
   5997.93  7.2239889E-02
   5998.03  7.3717979E-02
   5998.13  7.5197813E-02
   5998.23  7.6679847E-02
   5998.33  7.8155788E-02
   5998.43  7.9630291E-02
   5998.53  8.1090738E-02
   5998.63  8.2546000E-02
   5998.73  8.3979066E-02
   5998.83  8.5403021E-02
   5998.93  8.6796382E-02
   5999.03  8.8176502E-02
   5999.13  8.9517367E-02
   5999.23  9.0840710E-02
   5999.33  9.2116042E-02
   5999.43  9.3369569E-02
   5999.53  9.4566603E-02
   5999.63  9.5737780E-02
   5999.73  9.6844789E-02
   5999.83  9.7922392E-02
   5999.93  9.8929573E-02
   6000.03  9.9904571E-02
   6000.13  1.0080489E-01
   6000.23  1.0167124E-01
   6000.33  1.0246106E-01
   6000.43  1.0321630E-01
   6000.53  1.0389578E-01
   6000.63  1.0454129E-01
   6000.73  1.0511438E-01
   6000.83  1.0565533E-01
   6000.93  1.0612945E-01
   6001.03  1.0657442E-01
   6001.23  1.0732034E-01
   6001.43  1.0791933E-01
   6001.63  1.0840072E-01
   6001.83  1.0879549E-01
   6002.03  1.0913503E-01
   6002.23  1.0944984E-01
   6002.43  1.0976860E-01
   6002.63  1.1011743E-01
   6002.83  1.1051958E-01
   6003.03  1.1099544E-01
   6003.23  1.1156268E-01
   6003.43  1.1223652E-01
   6003.63  1.1302988E-01
   6003.83  1.1395344E-01
   6004.03  1.1501544E-01
   6004.23  1.1622124E-01
   6004.43  1.1757276E-01
   6004.63  1.1906775E-01
   6004.83  1.2069916E-01
   6005.03  1.2245473E-01
   6005.23  1.2431682E-01
   6005.43  1.2626256E-01
   6005.63  1.2826428E-01
   6005.83  1.3029009E-01
   6006.03  1.3230456E-01
   6006.23  1.3426960E-01
   6006.43  1.3614528E-01
   6006.63  1.3789105E-01
   6006.83  1.3946711E-01
   6007.03  1.4083614E-01
   6007.23  1.4196538E-01
   6007.43  1.4282870E-01
   6007.63  1.4340857E-01
   6007.83  1.4369749E-01
   6008.03  1.4369849E-01
   6008.23  1.4342476E-01
   6008.43  1.4289816E-01
   6008.63  1.4214713E-01
   6008.83  1.4120415E-01
   6009.03  1.4010601E-01
   6009.23  1.3889520E-01
   6009.43  1.3758333E-01
   6009.63  1.3620081E-01
   6009.83  1.3477481E-01
   6010.03  1.3333298E-01
   6010.23  1.3191066E-01
   6010.43  1.3050656E-01
   6010.63  1.2913527E-01
   6010.83  1.2780882E-01
   6011.03  1.2653787E-01
   6011.23  1.2533360E-01
   6011.43  1.2419744E-01
   6011.63  1.2313347E-01
   6011.83  1.2214422E-01
   6012.03  1.2123124E-01
   6012.23  1.2039621E-01
   6012.43  1.1963522E-01
   6012.63  1.1894577E-01
   6012.83  1.1832453E-01
   6013.03  1.1776926E-01
   6013.23  1.1728224E-01
   6013.43  1.1685024E-01
   6013.63  1.1646838E-01
   6013.83  1.1613185E-01
   6014.03  1.1583947E-01
   6014.23  1.1560029E-01
   6014.43  1.1539318E-01
   6014.63  1.1521435E-01
   6014.83  1.1506036E-01
   6015.03  1.1493300E-01
   6015.23  1.1484813E-01
   6015.43  1.1477996E-01
   6015.63  1.1472643E-01
   6015.83  1.1468571E-01
   6016.03  1.1466143E-01
   6017.03  1.1479641E-01
   6018.03  1.1519447E-01
   6019.03  1.1574597E-01
   6020.03  1.1636798E-01
   6021.03  1.1701577E-01
   6022.03  1.1769056E-01
   6023.03  1.1843174E-01
   6024.03  1.1929604E-01
   6025.03  1.2033235E-01
   6026.03  1.2156106E-01
   6027.03  1.2296374E-01
   6028.03  1.2448446E-01
   6029.03  1.2603982E-01
   6030.03  1.2753374E-01
   6031.03  1.2887309E-01
   6032.03  1.2998055E-01
   6033.03  1.3080211E-01
   6034.03  1.3130914E-01
   6035.03  1.3149730E-01
   6036.03  1.3138444E-01
   6037.03  1.3100785E-01
   6038.03  1.3042010E-01
   6039.03  1.2968284E-01
   6040.03  1.2885928E-01
   6041.03  1.2800699E-01
   6042.03  1.2717320E-01
   6043.03  1.2639353E-01
   6044.03  1.2569355E-01
   6045.03  1.2509115E-01
   6046.03  1.2459805E-01
   6047.03  1.2421985E-01
   6048.03  1.2395495E-01
   6049.03  1.2379379E-01
   6050.03  1.2371881E-01
   6051.03  1.2370582E-01
   6052.03  1.2372630E-01
   6053.03  1.2375059E-01
   6054.03  1.2375179E-01
   6055.03  1.2370960E-01
   6056.03  1.2361380E-01
   6057.03  1.2346587E-01
   6058.03  1.2327843E-01
   6059.03  1.2307239E-01
   6060.03  1.2287258E-01
   6061.03  1.2270327E-01
   6062.03  1.2258454E-01
   6063.03  1.2253009E-01
   6064.03  1.2254627E-01
   6065.03  1.2263242E-01
   6066.03  1.2278210E-01
   6067.03  1.2298518E-01
   6068.03  1.2323033E-01
   6069.03  1.2350718E-01
   6070.03  1.2380745E-01
   6071.03  1.2412460E-01
   6072.03  1.2445249E-01
   6073.03  1.2478371E-01
   6074.03  1.2510878E-01
   6075.03  1.2541645E-01
   6076.03  1.2569512E-01
   6077.03  1.2593460E-01
   6078.03  1.2612761E-01
   6079.03  1.2627044E-01
   6080.03  1.2636297E-01
   6081.03  1.2640793E-01
   6082.03  1.2641013E-01
   6083.03  1.2637551E-01
   6084.03  1.2631050E-01
   6085.03  1.2622145E-01
   6086.03  1.2611435E-01
   6087.03  1.2599469E-01
   6088.03  1.2586755E-01
