    Energy    <xanes>    
   5949.00  1.1573618E-03
   5949.50  1.1713385E-03
   5950.00  1.1856333E-03
   5950.50  1.2002572E-03
   5951.00  1.2152216E-03
   5951.50  1.2305383E-03
   5952.00  1.2462198E-03
   5952.50  1.2622792E-03
   5953.00  1.2787301E-03
   5953.50  1.2955869E-03
   5954.00  1.3128646E-03
   5954.50  1.3305790E-03
   5955.00  1.3487466E-03
   5955.50  1.3673850E-03
   5956.00  1.3865124E-03
   5956.50  1.4061482E-03
   5957.00  1.4263126E-03
   5957.50  1.4470270E-03
   5958.00  1.4683140E-03
   5958.50  1.4901974E-03
   5959.00  1.5127023E-03
   5959.50  1.5358554E-03
   5960.00  1.5596846E-03
   5960.50  1.5842197E-03
   5961.00  1.6094922E-03
   5961.50  1.6355354E-03
   5962.00  1.6623848E-03
   5962.50  1.6900778E-03
   5963.00  1.7186545E-03
   5963.50  1.7481573E-03
   5964.00  1.7786314E-03
   5964.50  1.8101251E-03
   5965.00  1.8426898E-03
   5965.50  1.8763803E-03
   5966.00  1.9112554E-03
   5966.50  1.9473779E-03
   5967.00  1.9848152E-03
   5967.50  2.0236394E-03
   5968.00  2.0639283E-03
   5968.50  2.1057651E-03
   5969.00  2.1492399E-03
   5969.50  2.1944495E-03
   5970.00  2.2414985E-03
   5970.50  2.2905002E-03
   5971.00  2.3415773E-03
   5971.50  2.3948627E-03
   5972.00  2.4505012E-03
   5972.50  2.5086502E-03
   5973.00  2.5694814E-03
   5973.50  2.6331825E-03
   5974.00  2.6999593E-03
   5974.50  2.7700371E-03
   5975.00  2.8436642E-03
   5975.50  2.9211142E-03
   5976.00  3.0026893E-03
   5976.50  3.0887245E-03
   5977.00  3.1795919E-03
   5977.50  3.2757064E-03
   5978.00  3.3775315E-03
   5978.50  3.4855871E-03
   5979.00  3.6004582E-03
   5979.50  3.7228057E-03
   5980.00  3.8533792E-03
   5980.50  3.9930324E-03
   5981.00  4.1427425E-03
   5981.50  4.3036332E-03
   5982.00  4.4770042E-03
   5982.50  4.6643679E-03
   5983.00  4.8674955E-03
   5983.50  5.0884765E-03
   5984.00  5.3297960E-03
   5984.10  5.3807528E-03
   5984.20  5.4326670E-03
   5984.30  5.4855663E-03
   5984.40  5.5394793E-03
   5984.50  5.5944359E-03
   5984.60  5.6504673E-03
   5984.70  5.7076058E-03
   5984.80  5.7658853E-03
   5984.90  5.8253408E-03
   5985.00  5.8860090E-03
   5985.10  5.9479282E-03
   5985.20  6.0111383E-03
   5985.30  6.0756809E-03
   5985.40  6.1415995E-03
   5985.50  6.2089396E-03
   5985.60  6.2777487E-03
   5985.70  6.3480765E-03
   5985.80  6.4199750E-03
   5985.90  6.4934986E-03
   5986.00  6.5687042E-03
   5986.10  6.6456513E-03
   5986.20  6.7244024E-03
   5986.30  6.8050228E-03
   5986.40  6.8875810E-03
   5986.50  6.9721487E-03
   5986.60  7.0588007E-03
   5986.70  7.1476157E-03
   5986.80  7.2386756E-03
   5986.90  7.3320664E-03
   5987.00  7.4278777E-03
   5987.10  7.5262028E-03
   5987.20  7.6271390E-03
   5987.30  7.7307877E-03
   5987.40  7.8372539E-03
   5987.50  7.9466463E-03
   5987.60  8.0590773E-03
   5987.70  8.1746628E-03
   5987.80  8.2935220E-03
   5987.90  8.4157772E-03
   5988.00  8.5415539E-03
   5988.10  8.6709804E-03
   5988.20  8.8041885E-03
   5988.30  8.9413132E-03
   5988.40  9.0824941E-03
   5988.50  9.2278759E-03
   5988.60  9.3776099E-03
   5988.70  9.5318558E-03
   5988.80  9.6907835E-03
   5988.90  9.8545755E-03
   5989.00  1.0023429E-02
   5989.10  1.0197792E-02
   5989.20  1.0378144E-02
   5989.30  1.0564755E-02
   5989.40  1.0757917E-02
   5989.50  1.0957940E-02
   5989.60  1.1165159E-02
   5989.70  1.1379928E-02
   5989.80  1.1602620E-02
   5989.90  1.1833631E-02
   5990.00  1.2073378E-02
   5990.10  1.2322302E-02
   5990.20  1.2580868E-02
   5990.30  1.2849575E-02
   5990.40  1.3128952E-02
   5990.50  1.3419566E-02
   5990.60  1.3722028E-02
   5990.70  1.4036995E-02
   5990.80  1.4365171E-02
   5990.90  1.4707310E-02
   5991.00  1.5064216E-02
   5991.10  1.5436737E-02
   5991.20  1.5825763E-02
   5991.30  1.6232217E-02
   5991.40  1.6657048E-02
   5991.50  1.7101214E-02
   5991.60  1.7565677E-02
   5991.70  1.8051378E-02
   5991.80  1.8559226E-02
   5991.90  1.9090075E-02
   5992.00  1.9644701E-02
   5992.10  2.0223775E-02
   5992.20  2.0827841E-02
   5992.30  2.1457275E-02
   5992.40  2.2112261E-02
   5992.50  2.2792752E-02
   5992.60  2.3498435E-02
   5992.70  2.4228700E-02
   5992.80  2.4982603E-02
   5992.90  2.5758848E-02
   5993.00  2.6555761E-02
   5993.10  2.7371285E-02
   5993.20  2.8202987E-02
   5993.30  2.9048080E-02
   5993.40  2.9903470E-02
   5993.50  3.0765819E-02
   5993.60  3.1631640E-02
   5993.70  3.2497405E-02
   5993.80  3.3359678E-02
   5993.90  3.4215252E-02
   5994.00  3.5061286E-02
   5994.20  3.6715948E-02
   5994.40  3.8312489E-02
   5994.60  3.9850770E-02
   5994.80  4.1341101E-02
   5995.00  4.2801868E-02
   5995.20  4.4256415E-02
   5995.40  4.5730137E-02
   5995.60  4.7248291E-02
   5995.80  4.8834504E-02
   5996.00  5.0509781E-02
   5996.20  5.2291774E-02
   5996.40  5.4194262E-02
   5996.60  5.6226820E-02
   5996.80  5.8394731E-02
   5997.00  6.0699114E-02
   5997.20  6.3137207E-02
   5997.40  6.5702699E-02
   5997.60  6.8386012E-02
   5997.80  7.1174501E-02
   5998.00  7.4052581E-02
   5998.20  7.7001790E-02
   5998.40  8.0000774E-02
   5998.60  8.3025132E-02
   5998.80  8.6047024E-02
   5999.00  8.9034537E-02
   5999.20  9.1950919E-02
   5999.40  9.4753992E-02
   5999.60  9.7396165E-02
   5999.80  9.9825520E-02
   6000.00  1.0198828E-01
   6000.20  1.0383267E-01
   6000.40  1.0531384E-01
   6000.60  1.0639892E-01
   6000.80  1.0707144E-01
   6001.00  1.0733397E-01
   6001.20  1.0720853E-01
   6001.40  1.0673456E-01
   6001.60  1.0596502E-01
   6001.80  1.0496126E-01
   6002.00  1.0378769E-01
   6002.20  1.0250691E-01
   6002.40  1.0117597E-01
   6002.60  9.9843826E-02
   6002.80  9.8550069E-02
   6003.00  9.7324738E-02
   6003.20  9.6188873E-02
   6003.40  9.5155570E-02
   6003.60  9.4231273E-02
   6003.80  9.3417100E-02
   6004.00  9.2710101E-02
   6004.20  9.2104336E-02
   6004.40  9.1591786E-02
   6004.60  9.1163058E-02
   6004.80  9.0807943E-02
   6005.00  9.0515826E-02
   6005.20  9.0276004E-02
   6005.40  9.0077929E-02
   6005.60  8.9911410E-02
   6005.80  8.9766787E-02
   6006.00  8.9635084E-02
   6006.20  8.9508157E-02
   6006.40  8.9378808E-02
   6006.60  8.9240896E-02
   6006.80  8.9089400E-02
   6007.00  8.8920458E-02
   6007.20  8.8731373E-02
   6007.40  8.8520571E-02
   6007.60  8.8287533E-02
   6007.80  8.8032693E-02
   6008.00  8.7757312E-02
   6008.20  8.7463332E-02
   6008.40  8.7153229E-02
   6008.60  8.6829853E-02
   6008.80  8.6496286E-02
   6009.00  8.6155699E-02
   6010.00  8.4451621E-02
   6011.00  8.2947537E-02
   6012.00  8.1764579E-02
   6013.00  8.0874299E-02
   6014.00  8.0184232E-02
   6015.00  7.9602992E-02
   6016.00  7.9065521E-02
   6017.00  7.8535818E-02
   6018.00  7.8007921E-02
   6019.00  7.7509257E-02
   6020.00  7.7099536E-02
   6021.00  7.6859391E-02
   6022.00  7.6870552E-02
   6023.00  7.7195428E-02
   6024.00  7.7862973E-02
   6025.00  7.8862189E-02
   6026.00  8.0141763E-02
   6027.00  8.1615029E-02
   6028.00  8.3170451E-02
   6029.00  8.4687208E-02
   6030.00  8.6053587E-02
   6031.00  8.7184070E-02
   6032.00  8.8030403E-02
   6033.00  8.8583527E-02
   6034.00  8.8866497E-02
   6035.00  8.8922098E-02
   6036.00  8.8800385E-02
   6037.00  8.8549933E-02
   6038.00  8.8213514E-02
   6039.00  8.7826556E-02
   6040.00  8.7416522E-02
   6041.00  8.7002437E-02
   6042.00  8.6594933E-02
   6043.00  8.6197405E-02
   6044.00  8.5808269E-02
   6045.00  8.5423712E-02
   6046.00  8.5040174E-02
   6047.00  8.4655957E-02
   6048.00  8.4271784E-02
   6049.00  8.3890469E-02
   6050.00  8.3516076E-02
   6051.00  8.3152991E-02
   6052.00  8.2805197E-02
   6053.00  8.2475937E-02
   6054.00  8.2167764E-02
   6055.00  8.1882811E-02
   6056.00  8.1623021E-02
   6057.00  8.1390142E-02
   6058.00  8.1185524E-02
   6059.00  8.1009992E-02
   6060.00  8.0864108E-02
   6061.00  8.0748923E-02
   6062.00  8.0666983E-02
   6063.00  8.0623091E-02
   6064.00  8.0624381E-02
   6065.00  8.0679523E-02
   6066.00  8.0797256E-02
   6067.00  8.0984687E-02
   6068.00  8.1245792E-02
   6069.00  8.1580445E-02
   6070.00  8.1984085E-02
   6071.00  8.2447998E-02
   6072.00  8.2960068E-02
   6073.00  8.3505850E-02
   6074.00  8.4069797E-02
   6075.00  8.4636476E-02
   6076.00  8.5191534E-02
   6077.00  8.5722277E-02
   6078.00  8.6217761E-02
   6079.00  8.6668498E-02
   6080.00  8.7065978E-02
   6081.00  8.7402327E-02
   6082.00  8.7670365E-02
   6083.00  8.7864258E-02
   6084.00  8.7980710E-02
   6085.00  8.8020368E-02
   6086.00  8.7988880E-02
   6087.00  8.7897022E-02
   6088.00  8.7759588E-02
   6089.00  8.7593223E-02
