    Energy    <xanes>    
   5949.00  5.7297834E-04
   5949.50  5.7984961E-04
   5950.00  5.8687666E-04
   5950.50  5.9406479E-04
   5951.00  6.0141956E-04
   5951.50  6.0894679E-04
   5952.00  6.1665257E-04
   5952.50  6.2454326E-04
   5953.00  6.3262556E-04
   5953.50  6.4090647E-04
   5954.00  6.4939335E-04
   5954.50  6.5809390E-04
   5955.00  6.6701625E-04
   5955.50  6.7616891E-04
   5956.00  6.8556083E-04
   5956.50  6.9520146E-04
   5957.00  7.0510072E-04
   5957.50  7.1526908E-04
   5958.00  7.2571757E-04
   5958.50  7.3645783E-04
   5959.00  7.4750217E-04
   5959.50  7.5886358E-04
   5960.00  7.7055579E-04
   5960.50  7.8259335E-04
   5961.00  7.9499167E-04
   5961.50  8.0776708E-04
   5962.00  8.2093691E-04
   5962.50  8.3451956E-04
   5963.00  8.4853460E-04
   5963.50  8.6300283E-04
   5964.00  8.7794643E-04
   5964.50  8.9338901E-04
   5965.00  9.0935581E-04
   5965.50  9.2587374E-04
   5966.00  9.4297161E-04
   5966.50  9.6068027E-04
   5967.00  9.7903277E-04
   5967.50  9.9806458E-04
   5968.00  1.0178138E-03
   5968.50  1.0383216E-03
   5969.00  1.0596319E-03
   5969.50  1.0817926E-03
   5970.00  1.1048552E-03
   5970.50  1.1288754E-03
   5971.00  1.1539137E-03
   5971.50  1.1800356E-03
   5972.00  1.2073125E-03
   5972.50  1.2358223E-03
   5973.00  1.2656497E-03
   5973.50  1.2968875E-03
   5974.00  1.3296376E-03
   5974.50  1.3640116E-03
   5975.00  1.4001326E-03
   5975.50  1.4381363E-03
   5976.00  1.4781729E-03
   5976.50  1.5204090E-03
   5977.00  1.5650299E-03
   5977.50  1.6122423E-03
   5978.00  1.6622776E-03
   5978.50  1.7153957E-03
   5979.00  1.7718895E-03
   5979.50  1.8320903E-03
   5980.00  1.8963745E-03
   5980.50  1.9651716E-03
   5981.00  2.0389742E-03
   5981.50  2.1183496E-03
   5982.00  2.2039556E-03
   5982.50  2.2965591E-03
   5983.00  2.3970600E-03
   5983.50  2.5065227E-03
   5984.00  2.6262159E-03
   5984.10  2.6515112E-03
   5984.20  2.6772893E-03
   5984.30  2.7035644E-03
   5984.40  2.7303512E-03
   5984.50  2.7576651E-03
   5984.60  2.7855221E-03
   5984.70  2.8139387E-03
   5984.80  2.8429322E-03
   5984.90  2.8725209E-03
   5985.00  2.9027235E-03
   5985.10  2.9335597E-03
   5985.20  2.9650500E-03
   5985.30  2.9972159E-03
   5985.40  3.0300799E-03
   5985.50  3.0636653E-03
   5985.60  3.0979966E-03
   5985.70  3.1330997E-03
   5985.80  3.1690011E-03
   5985.90  3.2057292E-03
   5986.00  3.2433134E-03
   5986.10  3.2817844E-03
   5986.20  3.3211748E-03
   5986.30  3.3615184E-03
   5986.40  3.4028507E-03
   5986.50  3.4452092E-03
   5986.60  3.4886329E-03
   5986.70  3.5331629E-03
   5986.80  3.5788421E-03
   5986.90  3.6257158E-03
   5987.00  3.6738311E-03
   5987.10  3.7232376E-03
   5987.20  3.7739870E-03
   5987.30  3.8261334E-03
   5987.40  3.8797332E-03
   5987.50  3.9348455E-03
   5987.60  3.9915314E-03
   5987.70  4.0498548E-03
   5987.80  4.1098819E-03
   5987.90  4.1716812E-03
   5988.00  4.2353239E-03
   5988.10  4.3008836E-03
   5988.20  4.3684365E-03
   5988.30  4.4380617E-03
   5988.40  4.5098413E-03
   5988.50  4.5838614E-03
   5988.60  4.6602119E-03
   5988.70  4.7389882E-03
   5988.80  4.8202915E-03
   5988.90  4.9042305E-03
   5989.00  4.9909221E-03
   5989.10  5.0806098E-03
   5989.20  5.1735537E-03
   5989.30  5.2699132E-03
   5989.40  5.3698606E-03
   5989.50  5.4735823E-03
   5989.60  5.5812787E-03
   5989.70  5.6931642E-03
   5989.80  5.8094673E-03
   5989.90  5.9304299E-03
   5990.00  6.0563065E-03
   5990.10  6.1873634E-03
   5990.20  6.3238779E-03
   5990.30  6.4661367E-03
   5990.40  6.6144346E-03
   5990.50  6.7690726E-03
   5990.60  6.9303558E-03
   5990.70  7.0985907E-03
   5990.80  7.2740825E-03
   5990.90  7.4571316E-03
   5991.00  7.6480301E-03
   5991.10  7.8470579E-03
   5991.20  8.0544790E-03
   5991.30  8.2705381E-03
   5991.40  8.4954575E-03
   5991.50  8.7294348E-03
   5991.60  8.9726416E-03
   5991.70  9.2252233E-03
   5991.80  9.4873000E-03
   5991.90  9.7589679E-03
   5992.00  1.0040301E-02
   5992.10  1.0331353E-02
   5992.20  1.0632157E-02
   5992.30  1.0942725E-02
   5992.40  1.1263044E-02
   5992.50  1.1593067E-02
   5992.60  1.1932700E-02
   5992.70  1.2281794E-02
   5992.80  1.2640119E-02
   5992.90  1.3007352E-02
   5993.00  1.3383054E-02
   5993.10  1.3766661E-02
   5993.20  1.4157470E-02
   5993.30  1.4554643E-02
   5993.40  1.4957217E-02
   5993.50  1.5364126E-02
   5993.60  1.5774234E-02
   5993.70  1.6186384E-02
   5993.80  1.6599444E-02
   5993.90  1.7012363E-02
   5994.00  1.7424224E-02
   5994.20  1.8242053E-02
   5994.40  1.9049769E-02
   5994.60  1.9848052E-02
   5994.80  2.0641028E-02
   5995.00  2.1435284E-02
   5995.20  2.2238708E-02
   5995.40  2.3059487E-02
   5995.60  2.3905428E-02
   5995.80  2.4783544E-02
   5996.00  2.5699805E-02
   5996.20  2.6658945E-02
   5996.40  2.7664251E-02
   5996.60  2.8717298E-02
   5996.80  2.9817670E-02
   5997.00  3.0962681E-02
   5997.20  3.2147209E-02
   5997.40  3.3363706E-02
   5997.60  3.4602470E-02
   5997.80  3.5852180E-02
   5998.00  3.7100647E-02
   5998.20  3.8335665E-02
   5998.40  3.9545784E-02
   5998.60  4.0720871E-02
   5998.80  4.1852376E-02
   5999.00  4.2933279E-02
   5999.20  4.3957813E-02
   5999.40  4.4921030E-02
   5999.60  4.5818323E-02
   5999.80  4.6644932E-02
   6000.00  4.7395484E-02
   6000.20  4.8063621E-02
   6000.40  4.8641801E-02
   6000.60  4.9121407E-02
   6000.80  4.9493264E-02
   6001.00  4.9748608E-02
   6001.20  4.9880378E-02
   6001.40  4.9884586E-02
   6001.60  4.9761455E-02
   6001.80  4.9516020E-02
   6002.00  4.9158056E-02
   6002.20  4.8701372E-02
   6002.40  4.8162647E-02
   6002.60  4.7560084E-02
   6002.80  4.6912142E-02
   6003.00  4.6236506E-02
   6003.20  4.5549388E-02
   6003.40  4.4865134E-02
   6003.60  4.4196077E-02
   6003.80  4.3552556E-02
   6004.00  4.2943015E-02
   6004.20  4.2374140E-02
   6004.40  4.1851009E-02
   6004.60  4.1377233E-02
   6004.80  4.0955101E-02
   6005.00  4.0585729E-02
   6005.20  4.0269212E-02
   6005.40  4.0004778E-02
   6005.60  3.9790942E-02
   6005.80  3.9625644E-02
   6006.00  3.9506385E-02
   6006.20  3.9430333E-02
   6006.40  3.9394423E-02
   6006.60  3.9395429E-02
   6006.80  3.9430028E-02
   6007.00  3.9494848E-02
   6007.20  3.9586505E-02
   6007.40  3.9701632E-02
   6007.60  3.9836907E-02
   6007.80  3.9989069E-02
   6008.00  4.0154938E-02
   6008.20  4.0331432E-02
   6008.40  4.0515577E-02
   6008.60  4.0704530E-02
   6008.80  4.0895586E-02
   6009.00  4.1086197E-02
   6010.00  4.1955833E-02
   6011.00  4.2539164E-02
   6012.00  4.2730726E-02
   6013.00  4.2526270E-02
   6014.00  4.2000210E-02
   6015.00  4.1280714E-02
   6016.00  4.0513276E-02
   6017.00  3.9823188E-02
   6018.00  3.9293529E-02
   6019.00  3.8962720E-02
   6020.00  3.8833691E-02
   6021.00  3.8885461E-02
   6022.00  3.9083278E-02
   6023.00  3.9387205E-02
   6024.00  3.9758858E-02
   6025.00  4.0165306E-02
   6026.00  4.0579937E-02
   6027.00  4.0981504E-02
   6028.00  4.1353208E-02
   6029.00  4.1683033E-02
   6030.00  4.1965265E-02
   6031.00  4.2202004E-02
   6032.00  4.2403310E-02
   6033.00  4.2585378E-02
   6034.00  4.2767003E-02
   6035.00  4.2965047E-02
   6036.00  4.3189794E-02
   6037.00  4.3441275E-02
   6038.00  4.3707689E-02
   6039.00  4.3966667E-02
   6040.00  4.4189280E-02
   6041.00  4.4345848E-02
   6042.00  4.4412027E-02
   6043.00  4.4373549E-02
   6044.00  4.4228354E-02
   6045.00  4.3985737E-02
   6046.00  4.3663118E-02
   6047.00  4.3281791E-02
   6048.00  4.2863059E-02
   6049.00  4.2425657E-02
   6050.00  4.1984703E-02
   6051.00  4.1551906E-02
   6052.00  4.1136523E-02
   6053.00  4.0746497E-02
   6054.00  4.0389289E-02
   6055.00  4.0072137E-02
   6056.00  3.9801785E-02
   6057.00  3.9583985E-02
   6058.00  3.9423104E-02
   6059.00  3.9322069E-02
   6060.00  3.9282582E-02
   6061.00  3.9305423E-02
   6062.00  3.9390586E-02
   6063.00  3.9537175E-02
   6064.00  3.9743101E-02
   6065.00  4.0004712E-02
   6066.00  4.0316470E-02
   6067.00  4.0670739E-02
   6068.00  4.1057775E-02
   6069.00  4.1465972E-02
   6070.00  4.1882443E-02
   6071.00  4.2293871E-02
   6072.00  4.2687469E-02
   6073.00  4.3051841E-02
   6074.00  4.3377624E-02
   6075.00  4.3657867E-02
   6076.00  4.3888232E-02
   6077.00  4.4067050E-02
   6078.00  4.4195243E-02
   6079.00  4.4276022E-02
   6080.00  4.4314383E-02
   6081.00  4.4316441E-02
   6082.00  4.4288741E-02
   6083.00  4.4237703E-02
   6084.00  4.4169260E-02
   6085.00  4.4088726E-02
   6086.00  4.4000811E-02
   6087.00  4.3909688E-02
   6088.00  4.3819020E-02
   6089.00  4.3731891E-02
