    Energy    <xanes>    
   7072.00  1.0601884E-03
   7072.50  1.0725546E-03
   7073.00  1.0852828E-03
   7073.50  1.0982968E-03
   7074.00  1.1116063E-03
   7074.50  1.1252211E-03
   7075.00  1.1391520E-03
   7075.50  1.1534100E-03
   7076.00  1.1680065E-03
   7076.50  1.1829537E-03
   7077.00  1.1982642E-03
   7077.50  1.2139512E-03
   7078.00  1.2300288E-03
   7078.50  1.2465115E-03
   7079.00  1.2634147E-03
   7079.50  1.2807544E-03
   7080.00  1.2985477E-03
   7080.50  1.3168123E-03
   7081.00  1.3355671E-03
   7081.50  1.3548318E-03
   7082.00  1.3746273E-03
   7082.50  1.3949756E-03
   7083.00  1.4158998E-03
   7083.50  1.4374246E-03
   7084.00  1.4595758E-03
   7084.50  1.4823809E-03
   7085.00  1.5058688E-03
   7085.50  1.5300705E-03
   7086.00  1.5550184E-03
   7086.50  1.5807473E-03
   7087.00  1.6072939E-03
   7087.50  1.6346974E-03
   7088.00  1.6629994E-03
   7088.50  1.6922443E-03
   7089.00  1.7224793E-03
   7089.50  1.7537550E-03
   7090.00  1.7861253E-03
   7090.50  1.8196480E-03
   7091.00  1.8543849E-03
   7091.50  1.8904022E-03
   7092.00  1.9277711E-03
   7092.50  1.9665681E-03
   7093.00  2.0068755E-03
   7093.50  2.0487821E-03
   7094.00  2.0923835E-03
   7094.50  2.1377834E-03
   7095.00  2.1850935E-03
   7095.50  2.2344355E-03
   7096.00  2.2859412E-03
   7096.50  2.3397539E-03
   7097.00  2.3960301E-03
   7097.50  2.4549404E-03
   7098.00  2.5166716E-03
   7098.50  2.5814281E-03
   7099.00  2.6494349E-03
   7099.50  2.7209395E-03
   7100.00  2.7962151E-03
   7100.50  2.8755640E-03
   7101.00  2.9593215E-03
   7101.50  3.0478607E-03
   7102.00  3.1415981E-03
   7102.50  3.2409997E-03
   7103.00  3.3465892E-03
   7103.50  3.4589572E-03
   7104.00  3.5787719E-03
   7104.50  3.7067937E-03
   7105.00  3.8438907E-03
   7105.50  3.9910605E-03
   7106.00  4.1494555E-03
   7106.50  4.3204166E-03
   7107.00  4.5055161E-03
   7107.10  4.5448847E-03
   7107.20  4.5847276E-03
   7107.30  4.6249566E-03
   7107.40  4.6655823E-03
   7107.50  4.7066158E-03
   7107.60  4.7495043E-03
   7107.70  4.7929357E-03
   7107.80  4.8368111E-03
   7107.90  4.8811436E-03
   7108.00  4.9259470E-03
   7108.01  4.9292078E-03
   7108.11  4.9755508E-03
   7108.21  5.0227559E-03
   7108.31  5.0708488E-03
   7108.41  5.1198565E-03
   7108.51  5.1698072E-03
   7108.61  5.2207304E-03
   7108.71  5.2726572E-03
   7108.81  5.3256204E-03
   7108.91  5.3796545E-03
   7109.01  5.4347961E-03
   7109.11  5.4910838E-03
   7109.21  5.5485588E-03
   7109.31  5.6072648E-03
   7109.41  5.6672486E-03
   7109.51  5.7285604E-03
   7109.61  5.7912542E-03
   7109.71  5.8553884E-03
   7109.81  5.9210264E-03
   7109.91  5.9882376E-03
   7110.01  6.0570982E-03
   7110.11  6.1276924E-03
   7110.21  6.2001142E-03
   7110.31  6.2744692E-03
   7110.41  6.3508769E-03
   7110.51  6.4294741E-03
   7110.61  6.5104185E-03
   7110.71  6.5938936E-03
   7110.81  6.6801151E-03
   7110.91  6.7693375E-03
   7111.01  6.8618626E-03
   7111.11  6.9580474E-03
   7111.21  7.0583091E-03
   7111.31  7.1631214E-03
   7111.41  7.2729902E-03
   7111.51  7.3883894E-03
   7111.61  7.5096316E-03
   7111.71  7.6366613E-03
   7111.81  7.7688159E-03
   7111.91  7.9047171E-03
   7112.01  8.0426333E-03
   7112.11  8.1813030E-03
   7112.21  8.3199904E-03
   7112.31  8.4591754E-03
   7112.41  8.6003119E-03
   7112.51  8.7452130E-03
   7112.61  8.8954969E-03
   7112.71  9.0521912E-03
   7112.81  9.2153855E-03
   7112.91  9.3839458E-03
   7113.01  9.5556433E-03
   7113.11  9.7281227E-03
   7113.21  9.8992667E-03
   7113.31  1.0068512E-02
   7113.41  1.0237167E-02
   7113.51  1.0407848E-02
   7113.61  1.0583590E-02
   7113.71  1.0767184E-02
   7113.81  1.0960884E-02
   7113.91  1.1166387E-02
   7114.01  1.1384922E-02
   7114.11  1.1617375E-02
   7114.21  1.1864431E-02
   7114.31  1.2126693E-02
   7114.41  1.2404771E-02
   7114.51  1.2699340E-02
   7114.61  1.3011178E-02
   7114.71  1.3341189E-02
   7114.81  1.3690424E-02
   7114.91  1.4060087E-02
   7115.01  1.4451555E-02
   7115.11  1.4866390E-02
   7115.21  1.5306350E-02
   7115.31  1.5773413E-02
   7115.41  1.6269794E-02
   7115.51  1.6797971E-02
   7115.61  1.7360723E-02
   7115.71  1.7961173E-02
   7115.81  1.8602841E-02
   7115.91  1.9289703E-02
   7116.01  2.0026245E-02
   7116.11  2.0817534E-02
   7116.21  2.1669278E-02
   7116.31  2.2587903E-02
   7116.41  2.3580620E-02
   7116.51  2.4655500E-02
   7116.61  2.5821550E-02
   7116.71  2.7088777E-02
   7116.81  2.8468262E-02
   7116.91  2.9972210E-02
   7117.01  3.1618560E-02
   7117.11  3.3467250E-02
   7117.21  3.5374438E-02
   7117.31  3.7582333E-02
   7117.41  3.9860145E-02
   7117.51  4.2481889E-02
   7117.61  4.5185185E-02
   7117.71  4.8255167E-02
   7117.81  5.1418031E-02
   7117.91  5.4943614E-02
   7118.01  5.8574019E-02
   7118.21  6.6645932E-02
   7118.41  7.5652542E-02
   7118.61  8.5633744E-02
   7118.81  9.6564958E-02
   7119.01  1.0826224E-01
   7119.21  1.2035788E-01
   7119.41  1.3235430E-01
   7119.61  1.4375489E-01
   7119.81  1.5426403E-01
   7120.01  1.6391587E-01
   7120.21  1.7295277E-01
   7120.41  1.8152581E-01
   7120.61  1.8951230E-01
   7120.81  1.9662028E-01
   7121.01  2.0265929E-01
   7121.21  2.0773421E-01
   7121.41  2.1223142E-01
   7121.61  2.1664891E-01
   7121.81  2.2141526E-01
   7122.01  2.2679757E-01
   7122.21  2.3290083E-01
   7122.41  2.3970901E-01
   7122.61  2.4712689E-01
   7122.81  2.5501139E-01
   7123.01  2.6320024E-01
   7123.21  2.7154218E-01
   7123.41  2.7991979E-01
   7123.61  2.8825719E-01
   7123.81  2.9651663E-01
   7124.01  3.0468824E-01
   7124.21  3.1276809E-01
   7124.41  3.2072108E-01
   7124.61  3.2844123E-01
   7124.81  3.3573443E-01
   7125.01  3.4233982E-01
   7125.21  3.4798257E-01
   7125.41  3.5243327E-01
   7125.61  3.5554984E-01
   7125.81  3.5729192E-01
   7126.01  3.5771168E-01
   7126.21  3.5693159E-01
   7126.41  3.5511825E-01
   7126.61  3.5245756E-01
   7126.81  3.4913390E-01
   7127.01  3.4531467E-01
   7127.21  3.4114142E-01
   7127.41  3.3672831E-01
   7127.61  3.3216680E-01
   7127.81  3.2753385E-01
   7128.01  3.2289972E-01
   7128.21  3.1833203E-01
   7128.41  3.1389541E-01
   7128.61  3.0964817E-01
   7128.81  3.0563867E-01
   7129.01  3.0190316E-01
   7129.21  2.9846571E-01
   7129.41  2.9533941E-01
   7129.61  2.9252816E-01
   7129.81  2.9002823E-01
   7130.01  2.8782945E-01
   7130.21  2.8591591E-01
   7130.41  2.8426639E-01
   7130.61  2.8285485E-01
   7130.81  2.8165103E-01
   7131.01  2.8062138E-01
   7131.21  2.7973044E-01
   7131.41  2.7894246E-01
   7131.61  2.7822322E-01
   7131.81  2.7754161E-01
   7132.01  2.7687044E-01
   7132.21  2.7617340E-01
   7132.41  2.7544948E-01
   7132.61  2.7469784E-01
   7132.81  2.7392031E-01
   7133.01  2.7311628E-01
   7134.01  2.6836637E-01
   7135.01  2.6317598E-01
   7136.01  2.5832113E-01
   7137.01  2.5418383E-01
   7138.01  2.5058036E-01
   7139.01  2.4699883E-01
   7140.01  2.4298080E-01
   7141.01  2.3840879E-01
   7142.01  2.3355748E-01
   7143.01  2.2890147E-01
   7144.01  2.2484888E-01
   7145.01  2.2158388E-01
   7146.01  2.1907073E-01
   7147.01  2.1716416E-01
   7148.01  2.1573159E-01
   7149.01  2.1470638E-01
   7150.01  2.1406012E-01
   7151.01  2.1375551E-01
   7152.01  2.1373668E-01
   7153.01  2.1395682E-01
   7154.01  2.1440771E-01
   7155.01  2.1512333E-01
   7156.01  2.1615469E-01
   7157.01  2.1753638E-01
   7158.01  2.1926943E-01
   7159.01  2.2132869E-01
   7160.01  2.2368254E-01
   7161.01  2.2630647E-01
   7162.01  2.2918260E-01
   7163.01  2.3228977E-01
   7164.01  2.3559369E-01
   7165.01  2.3904306E-01
   7166.01  2.4257113E-01
   7167.01  2.4609857E-01
   7168.01  2.4953554E-01
   7169.01  2.5278451E-01
   7170.01  2.5574760E-01
   7171.01  2.5833943E-01
   7172.01  2.6050246E-01
   7173.01  2.6221856E-01
   7174.01  2.6351092E-01
   7175.01  2.6443465E-01
   7176.01  2.6505961E-01
   7177.01  2.6545361E-01
   7178.01  2.6567255E-01
   7179.01  2.6575963E-01
   7180.01  2.6574930E-01
   7181.01  2.6567076E-01
   7182.01  2.6554790E-01
   7183.01  2.6539695E-01
   7184.01  2.6522450E-01
   7185.01  2.6502783E-01
   7186.01  2.6479769E-01
   7187.01  2.6452234E-01
   7188.01  2.6419153E-01
   7189.01  2.6379964E-01
   7190.01  2.6334784E-01
   7191.01  2.6284563E-01
   7192.01  2.6231142E-01
   7193.01  2.6177134E-01
   7194.01  2.6125551E-01
   7195.01  2.6079251E-01
   7196.01  2.6040412E-01
   7197.01  2.6010251E-01
   7198.01  2.5989053E-01
   7199.01  2.5976407E-01
   7200.01  2.5971473E-01
   7201.01  2.5973171E-01
   7202.01  2.5980236E-01
   7203.01  2.5991215E-01
   7204.01  2.6004460E-01
   7205.01  2.6018213E-01
   7206.01  2.6030784E-01
   7207.01  2.6040792E-01
   7208.01  2.6047382E-01
   7209.01  2.6050329E-01
   7210.01  2.6049982E-01
   7211.01  2.6047096E-01
