    Energy    <xanes>    
   7072.00  5.2672286E-04
   7072.50  5.3284760E-04
   7073.00  5.3930294E-04
   7073.50  5.4590582E-04
   7074.00  5.5266132E-04
   7074.50  5.5957472E-04
   7075.00  5.6665157E-04
   7075.50  5.7389766E-04
   7076.00  5.8131907E-04
   7076.50  5.8892216E-04
   7077.00  5.9671361E-04
   7077.50  6.0470043E-04
   7078.00  6.1288997E-04
   7078.50  6.2128996E-04
   7079.00  6.2990852E-04
   7079.50  6.3875420E-04
   7080.00  6.4783597E-04
   7080.50  6.5716331E-04
   7081.00  6.6674620E-04
   7081.50  6.7659514E-04
   7082.00  6.8672125E-04
   7082.50  6.9713625E-04
   7083.00  7.0785252E-04
   7083.50  7.1888316E-04
   7084.00  7.3024204E-04
   7084.50  7.4194385E-04
   7085.00  7.5400416E-04
   7085.50  7.6643949E-04
   7086.00  7.7926737E-04
   7086.50  7.9250647E-04
   7087.00  8.0617661E-04
   7087.50  8.2029892E-04
   7088.00  8.3489592E-04
   7088.50  8.4999164E-04
   7089.00  8.6561175E-04
   7089.50  8.8178369E-04
   7090.00  8.9853684E-04
   7090.50  9.1590270E-04
   7091.00  9.3391506E-04
   7091.50  9.5261024E-04
   7092.00  9.7202731E-04
   7092.50  9.9220834E-04
   7093.00  1.0131988E-03
   7093.50  1.0350476E-03
   7094.00  1.0578080E-03
   7094.50  1.0815375E-03
   7095.00  1.1062986E-03
   7095.50  1.1321591E-03
   7096.00  1.1591933E-03
   7096.50  1.1874819E-03
   7097.00  1.2171135E-03
   7097.50  1.2481849E-03
   7098.00  1.2808028E-03
   7098.50  1.3150847E-03
   7099.00  1.3511603E-03
   7099.50  1.3891733E-03
   7100.00  1.4292833E-03
   7100.50  1.4716684E-03
   7101.00  1.5165277E-03
   7101.50  1.5640846E-03
   7102.00  1.6145914E-03
   7102.50  1.6683338E-03
   7103.00  1.7256371E-03
   7103.50  1.7868742E-03
   7104.00  1.8524752E-03
   7104.50  1.9229405E-03
   7105.00  1.9988572E-03
   7105.50  2.0809223E-03
   7106.00  2.1699746E-03
   7106.50  2.2670411E-03
   7107.00  2.3734068E-03
   7107.03  2.3799266E-03
   7107.13  2.4025822E-03
   7107.23  2.4256942E-03
   7107.33  2.4492793E-03
   7107.43  2.4733553E-03
   7107.53  2.4979409E-03
   7107.63  2.5230563E-03
   7107.73  2.5487229E-03
   7107.83  2.5749639E-03
   7107.93  2.6018040E-03
   7108.03  2.6292698E-03
   7108.13  2.6573903E-03
   7108.23  2.6861965E-03
   7108.33  2.7157226E-03
   7108.43  2.7460054E-03
   7108.53  2.7770854E-03
   7108.63  2.8090070E-03
   7108.73  2.8418192E-03
   7108.83  2.8755761E-03
   7108.93  2.9103379E-03
   7109.03  2.9461716E-03
   7109.13  2.9831525E-03
   7109.23  3.0213654E-03
   7109.33  3.0609062E-03
   7109.43  3.1018841E-03
   7109.53  3.1444241E-03
   7109.63  3.1886703E-03
   7109.73  3.2347892E-03
   7109.83  3.2829753E-03
   7109.93  3.3334564E-03
   7110.03  3.3865017E-03
   7110.13  3.4424314E-03
   7110.23  3.5016284E-03
   7110.33  3.5645549E-03
   7110.43  3.6317717E-03
   7110.53  3.7039641E-03
   7110.63  3.7819751E-03
   7110.73  3.8668465E-03
   7110.83  3.9598714E-03
   7110.93  4.0626571E-03
   7111.03  4.1771965E-03
   7111.13  4.3059391E-03
   7111.23  4.4518376E-03
   7111.33  4.6183143E-03
   7111.43  4.8090392E-03
   7111.53  5.0273224E-03
   7111.63  5.2748330E-03
   7111.73  5.5493694E-03
   7111.83  5.8417924E-03
   7111.93  6.1333059E-03
   7112.03  6.3958760E-03
   7112.13  6.5985660E-03
   7112.23  6.7191013E-03
   7112.33  6.7549304E-03
   7112.43  6.7239193E-03
   7112.53  6.6540780E-03
   7112.63  6.5709708E-03
   7112.73  6.4910815E-03
   7112.83  6.4221757E-03
   7112.93  6.3670020E-03
   7113.03  6.3266934E-03
   7113.13  6.3022963E-03
   7113.23  6.2948096E-03
   7113.33  6.3048472E-03
   7113.43  6.3325574E-03
   7113.53  6.3777476E-03
   7113.63  6.4400086E-03
   7113.73  6.5187975E-03
   7113.83  6.6135256E-03
   7113.93  6.7236537E-03
   7114.03  6.8487701E-03
   7114.13  6.9886345E-03
   7114.23  7.1431940E-03
   7114.33  7.3125863E-03
   7114.43  7.4971393E-03
   7114.53  7.6973709E-03
   7114.63  7.9139923E-03
   7114.73  8.1479124E-03
   7114.83  8.4002454E-03
   7114.93  8.6723220E-03
   7115.03  8.9657039E-03
   7115.13  9.2822020E-03
   7115.23  9.6238975E-03
   7115.33  9.9931661E-03
   7115.43  1.0392703E-02
   7115.53  1.0825546E-02
   7115.63  1.1295100E-02
   7115.73  1.1805145E-02
   7115.83  1.2359845E-02
   7115.93  1.2963734E-02
   7116.03  1.3621686E-02
   7116.13  1.4338879E-02
   7116.23  1.5120751E-02
   7116.33  1.5972966E-02
   7116.43  1.6901404E-02
   7116.53  1.7912146E-02
   7116.63  1.9011391E-02
   7116.73  2.0205202E-02
   7116.83  2.1498965E-02
   7116.93  2.2896571E-02
   7117.03  2.4405037E-02
   7117.23  2.7717482E-02
   7117.43  3.1399191E-02
   7117.63  3.5390134E-02
   7117.83  3.9635055E-02
   7118.03  4.4075883E-02
   7118.23  4.8628313E-02
   7118.43  5.3162665E-02
   7118.63  5.7506037E-02
   7118.83  6.1489036E-02
   7119.03  6.5024595E-02
   7119.23  6.8141322E-02
   7119.43  7.0940099E-02
   7119.63  7.3537468E-02
   7119.83  7.6048561E-02
   7120.03  7.8590747E-02
   7120.23  8.1272158E-02
   7120.43  8.4172625E-02
   7120.63  8.7347285E-02
   7120.83  9.0851794E-02
   7121.03  9.4761705E-02
   7121.23  9.9170510E-02
   7121.43  1.0417191E-01
   7121.63  1.0983707E-01
   7121.83  1.1619330E-01
   7122.03  1.2320659E-01
   7122.23  1.3076745E-01
   7122.43  1.3868142E-01
   7122.63  1.4667465E-01
   7122.83  1.5442570E-01
   7123.03  1.6161761E-01
   7123.23  1.6798850E-01
   7123.43  1.7336289E-01
   7123.63  1.7766098E-01
   7123.83  1.8089028E-01
   7124.03  1.8312467E-01
   7124.23  1.8447924E-01
   7124.43  1.8509043E-01
   7124.63  1.8510458E-01
   7124.83  1.8467013E-01
   7125.03  1.8392820E-01
   7125.23  1.8300173E-01
   7125.43  1.8198700E-01
   7125.63  1.8095022E-01
   7125.83  1.7992897E-01
   7126.03  1.7893634E-01
   7126.23  1.7796605E-01
   7126.43  1.7699740E-01
   7126.63  1.7599987E-01
   7126.83  1.7493762E-01
   7127.03  1.7377366E-01
   7127.23  1.7247385E-01
   7127.43  1.7101019E-01
   7127.63  1.6936361E-01
   7127.83  1.6752577E-01
   7128.03  1.6549995E-01
   7128.23  1.6330066E-01
   7128.43  1.6095216E-01
   7128.63  1.5848597E-01
   7128.83  1.5593812E-01
   7129.03  1.5334632E-01
   7129.23  1.5074771E-01
   7129.43  1.4817708E-01
   7129.63  1.4566575E-01
   7129.83  1.4324079E-01
   7130.03  1.4092474E-01
   7130.23  1.3873543E-01
   7130.43  1.3668607E-01
   7130.63  1.3478555E-01
   7130.83  1.3303867E-01
   7131.03  1.3144669E-01
   7131.23  1.3000774E-01
   7131.43  1.2871737E-01
   7131.63  1.2756908E-01
   7131.83  1.2655483E-01
   7132.03  1.2567874E-01
   7133.03  1.2275045E-01
   7134.03  1.2150970E-01
   7135.03  1.2107315E-01
   7136.03  1.2095771E-01
   7137.03  1.2091799E-01
   7138.03  1.2071729E-01
   7139.03  1.2005393E-01
   7140.03  1.1868034E-01
   7141.03  1.1654220E-01
   7142.03  1.1379849E-01
   7143.03  1.1073216E-01
   7144.03  1.0763726E-01
   7145.03  1.0474729E-01
   7146.03  1.0221815E-01
   7147.03  1.0015013E-01
   7148.03  9.8622259E-02
   7149.03  9.7712222E-02
   7150.03  9.7488687E-02
   7151.03  9.7987424E-02
   7152.03  9.9193838E-02
   7153.03  1.0104227E-01
   7154.03  1.0342705E-01
   7155.03  1.0621654E-01
   7156.03  1.0926525E-01
   7157.03  1.1242456E-01
   7158.03  1.1555346E-01
   7159.03  1.1852929E-01
   7160.03  1.2125703E-01
   7161.03  1.2367519E-01
   7162.03  1.2575637E-01
   7163.03  1.2750123E-01
   7164.03  1.2892727E-01
   7165.03  1.3005723E-01
   7166.03  1.3091180E-01
   7167.03  1.3150911E-01
   7168.03  1.3186943E-01
   7169.03  1.3202155E-01
   7170.03  1.3200679E-01
   7171.03  1.3187798E-01
   7172.03  1.3169283E-01
   7173.03  1.3150442E-01
   7174.03  1.3135232E-01
   7175.03  1.3125741E-01
   7176.03  1.3122161E-01
   7177.03  1.3123153E-01
   7178.03  1.3126434E-01
   7179.03  1.3129383E-01
   7180.03  1.3129507E-01
   7181.03  1.3124747E-01
   7182.03  1.3113616E-01
   7183.03  1.3095234E-01
   7184.03  1.3069283E-01
   7185.03  1.3035920E-01
   7186.03  1.2995670E-01
   7187.03  1.2949306E-01
   7188.03  1.2897760E-01
   7189.03  1.2842022E-01
   7190.03  1.2783068E-01
   7191.03  1.2721831E-01
   7192.03  1.2659231E-01
   7193.03  1.2596267E-01
   7194.03  1.2534071E-01
   7195.03  1.2473885E-01
   7196.03  1.2416948E-01
   7197.03  1.2364375E-01
   7198.03  1.2317083E-01
   7199.03  1.2275796E-01
   7200.03  1.2241085E-01
   7201.03  1.2213396E-01
   7202.03  1.2193005E-01
   7203.03  1.2179960E-01
   7204.03  1.2174017E-01
   7205.03  1.2174647E-01
   7206.03  1.2181085E-01
   7207.03  1.2192402E-01
   7208.03  1.2207563E-01
   7209.03  1.2225461E-01
   7210.03  1.2244952E-01
   7211.03  1.2264921E-01
