    Energy    <xanes>    
  17958.00  2.3670655E-03
  17958.50  2.3959128E-03
  17959.00  2.4254162E-03
  17959.50  2.4555980E-03
  17960.00  2.4864816E-03
  17960.50  2.5180915E-03
  17961.00  2.5504533E-03
  17961.50  2.5835939E-03
  17962.00  2.6175414E-03
  17962.50  2.6523253E-03
  17963.00  2.6879765E-03
  17963.50  2.7245277E-03
  17964.00  2.7620129E-03
  17964.50  2.8004681E-03
  17965.00  2.8399310E-03
  17965.50  2.8804415E-03
  17966.00  2.9220413E-03
  17966.50  2.9647747E-03
  17967.00  3.0086883E-03
  17967.50  3.0538311E-03
  17968.00  3.1002552E-03
  17968.50  3.1480155E-03
  17969.00  3.1971701E-03
  17969.50  3.2477806E-03
  17970.00  3.2999123E-03
  17970.50  3.3536343E-03
  17971.00  3.4090202E-03
  17971.50  3.4661482E-03
  17972.00  3.5251014E-03
  17972.50  3.5859684E-03
  17973.00  3.6488437E-03
  17973.50  3.7138282E-03
  17974.00  3.7810295E-03
  17974.50  3.8505631E-03
  17975.00  3.9225524E-03
  17975.50  3.9971301E-03
  17976.00  4.0744385E-03
  17976.50  4.1546309E-03
  17977.00  4.2378723E-03
  17977.50  4.3243408E-03
  17978.00  4.4142290E-03
  17978.50  4.5077454E-03
  17979.00  4.6051160E-03
  17979.50  4.7065867E-03
  17980.00  4.8124251E-03
  17980.50  4.9229232E-03
  17981.00  5.0384006E-03
  17981.50  5.1592074E-03
  17982.00  5.2857288E-03
  17982.50  5.4183890E-03
  17983.00  5.5576570E-03
  17983.50  5.7040528E-03
  17984.00  5.8581550E-03
  17984.50  6.0206091E-03
  17985.00  6.1921389E-03
  17985.50  6.3735586E-03
  17986.00  6.5657885E-03
  17986.50  6.7698739E-03
  17987.00  6.9870081E-03
  17987.50  7.2185617E-03
  17988.00  7.4661185E-03
  17988.50  7.7315217E-03
  17989.00  8.0169324E-03
  17989.50  8.3249066E-03
  17990.00  8.6584954E-03
  17990.50  9.0213786E-03
  17991.00  9.4180462E-03
  17991.50  9.8540465E-03
  17992.00  1.0336333E-02
  17992.50  1.0873754E-02
  17993.00  1.1477764E-02
  17993.10  1.1607805E-02
  17993.20  1.1741239E-02
  17993.30  1.1878216E-02
  17993.40  1.2018896E-02
  17993.50  1.2163448E-02
  17993.60  1.2312054E-02
  17993.70  1.2464905E-02
  17993.80  1.2622205E-02
  17993.90  1.2784173E-02
  17994.00  1.2951040E-02
  17994.10  1.3123053E-02
  17994.20  1.3300477E-02
  17994.30  1.3483593E-02
  17994.40  1.3672701E-02
  17994.50  1.3868122E-02
  17994.60  1.4070200E-02
  17994.70  1.4279298E-02
  17994.80  1.4495807E-02
  17994.90  1.4720143E-02
  17995.00  1.4952748E-02
  17995.10  1.5194095E-02
  17995.20  1.5444684E-02
  17995.30  1.5705048E-02
  17995.40  1.5975748E-02
  17995.50  1.6257378E-02
  17995.60  1.6550562E-02
  17995.70  1.6855953E-02
  17995.80  1.7174228E-02
  17995.90  1.7506087E-02
  17996.00  1.7852246E-02
  17996.10  1.8213425E-02
  17996.20  1.8590342E-02
  17996.30  1.8983694E-02
  17996.40  1.9394140E-02
  17996.50  1.9822276E-02
  17996.60  2.0268606E-02
  17996.70  2.0733509E-02
  17996.80  2.1217199E-02
  17996.90  2.1719676E-02
  17997.00  2.2240682E-02
  17997.10  2.2779644E-02
  17997.20  2.3335624E-02
  17997.30  2.3907272E-02
  17997.40  2.4492787E-02
  17997.50  2.5089896E-02
  17997.60  2.5695850E-02
  17997.70  2.6307453E-02
  17997.80  2.6921117E-02
  17997.90  2.7532961E-02
  17998.00  2.8138930E-02
  17998.10  2.8735236E-02
  17998.20  2.9318218E-02
  17998.30  2.9884274E-02
  17998.40  3.0430347E-02
  17998.50  3.0954077E-02
  17998.60  3.1453922E-02
  17998.70  3.1929236E-02
  17998.80  3.2380286E-02
  17998.90  3.2808235E-02
  17999.00  3.3215080E-02
  17999.10  3.3603562E-02
  17999.20  3.3977067E-02
  17999.30  3.4339504E-02
  17999.40  3.4695204E-02
  17999.50  3.5048802E-02
  17999.60  3.5405141E-02
  17999.70  3.5769167E-02
  17999.80  3.6145843E-02
  17999.90  3.6540059E-02
  18000.00  3.6956548E-02
  18000.10  3.7399814E-02
  18000.20  3.7874066E-02
  18000.30  3.8383162E-02
  18000.40  3.8930566E-02
  18000.50  3.9519308E-02
  18000.60  4.0151961E-02
  18000.70  4.0830615E-02
  18000.80  4.1556868E-02
  18000.90  4.2331806E-02
  18001.00  4.3156000E-02
  18001.10  4.4029497E-02
  18001.20  4.4951812E-02
  18001.30  4.5921934E-02
  18001.40  4.6938329E-02
  18001.50  4.7998952E-02
  18001.60  4.9101272E-02
  18001.70  5.0242303E-02
  18001.80  5.1418648E-02
  18001.90  5.2626552E-02
  18002.00  5.3861972E-02
  18002.10  5.5120653E-02
  18002.20  5.6398215E-02
  18002.30  5.7690244E-02
  18002.40  5.8992393E-02
  18002.50  6.0300480E-02
  18002.60  6.1610574E-02
  18002.70  6.2919083E-02
  18002.80  6.4222814E-02
  18002.90  6.5519019E-02
  18003.00  6.6805417E-02
  18003.20  6.9341976E-02
  18003.40  7.1823100E-02
  18003.60  7.4245274E-02
  18003.80  7.6609705E-02
  18004.00  7.8921935E-02
  18004.20  8.1192511E-02
  18004.40  8.3438290E-02
  18004.60  8.5683399E-02
  18004.80  8.7958829E-02
  18005.00  9.0300114E-02
  18005.20  9.2743450E-02
  18005.40  9.5321264E-02
  18005.60  9.8058445E-02
  18005.80  1.0097015E-01
  18006.00  1.0406148E-01
  18006.20  1.0732892E-01
  18006.40  1.1076295E-01
  18006.60  1.1435119E-01
  18006.80  1.1808134E-01
  18007.00  1.2194340E-01
  18007.20  1.2593061E-01
  18007.40  1.3003915E-01
  18007.60  1.3426667E-01
  18007.80  1.3861000E-01
  18008.00  1.4306248E-01
  18008.20  1.4761147E-01
  18008.40  1.5223619E-01
  18008.60  1.5690644E-01
  18008.80  1.6158209E-01
  18009.00  1.6621351E-01
  18009.20  1.7074303E-01
  18009.40  1.7510719E-01
  18009.60  1.7924010E-01
  18009.80  1.8307746E-01
  18010.00  1.8656124E-01
  18010.20  1.8964432E-01
  18010.40  1.9229457E-01
  18010.60  1.9449774E-01
  18010.80  1.9625841E-01
  18011.00  1.9759904E-01
  18011.20  1.9855714E-01
  18011.40  1.9918115E-01
  18011.60  1.9952578E-01
  18011.80  1.9964738E-01
  18012.00  1.9960011E-01
  18012.20  1.9943309E-01
  18012.40  1.9918861E-01
  18012.60  1.9890137E-01
  18012.80  1.9859846E-01
  18013.00  1.9829989E-01
  18013.20  1.9801929E-01
  18013.40  1.9776492E-01
  18013.60  1.9754053E-01
  18013.80  1.9734636E-01
  18014.00  1.9718001E-01
  18014.20  1.9703738E-01
  18014.40  1.9691345E-01
  18014.60  1.9680311E-01
  18014.80  1.9670186E-01
  18015.00  1.9660634E-01
  18015.20  1.9651476E-01
  18015.40  1.9642714E-01
  18015.60  1.9634539E-01
  18015.80  1.9627316E-01
  18016.00  1.9621567E-01
  18016.20  1.9617933E-01
  18016.40  1.9617140E-01
  18016.60  1.9619956E-01
  18016.80  1.9627153E-01
  18017.00  1.9639472E-01
  18017.20  1.9657592E-01
  18017.40  1.9682109E-01
  18017.60  1.9713517E-01
  18017.80  1.9752193E-01
  18018.00  1.9798396E-01
  18019.00  2.0142614E-01
  18020.00  2.0644203E-01
  18021.00  2.1212202E-01
  18022.00  2.1718564E-01
  18023.00  2.2035835E-01
  18024.00  2.2075115E-01
  18025.00  2.1806722E-01
  18026.00  2.1260388E-01
  18027.00  2.0512679E-01
  18028.00  1.9665029E-01
  18029.00  1.8816599E-01
  18030.00  1.8042965E-01
  18031.00  1.7388513E-01
  18032.00  1.6870170E-01
  18033.00  1.6485330E-01
  18034.00  1.6218958E-01
  18035.00  1.6048746E-01
  18036.00  1.5949294E-01
  18037.00  1.5896233E-01
  18038.00  1.5870082E-01
  18039.00  1.5858758E-01
  18040.00  1.5857872E-01
  18041.00  1.5868942E-01
  18042.00  1.5896543E-01
  18043.00  1.5945475E-01
  18044.00  1.6018606E-01
  18045.00  1.6115599E-01
  18046.00  1.6232584E-01
  18047.00  1.6362712E-01
  18048.00  1.6497417E-01
  18049.00  1.6628071E-01
  18050.00  1.6747586E-01
  18051.00  1.6851561E-01
  18052.00  1.6938705E-01
  18053.00  1.7010521E-01
  18054.00  1.7070524E-01
  18055.00  1.7123357E-01
  18056.00  1.7174099E-01
  18057.00  1.7227850E-01
  18058.00  1.7289486E-01
  18059.00  1.7363389E-01
  18060.00  1.7453066E-01
  18061.00  1.7560713E-01
  18062.00  1.7686886E-01
  18063.00  1.7830431E-01
  18064.00  1.7988778E-01
  18065.00  1.8158512E-01
  18066.00  1.8336060E-01
  18067.00  1.8518211E-01
  18068.00  1.8702296E-01
  18069.00  1.8886010E-01
  18070.00  1.9067059E-01
  18071.00  1.9242816E-01
  18072.00  1.9410157E-01
  18073.00  1.9565479E-01
  18074.00  1.9704850E-01
  18075.00  1.9824266E-01
  18076.00  1.9919984E-01
  18077.00  1.9988918E-01
  18078.00  2.0029038E-01
  18079.00  2.0039667E-01
  18080.00  2.0021593E-01
  18081.00  1.9976950E-01
  18082.00  1.9908912E-01
  18083.00  1.9821260E-01
  18084.00  1.9717898E-01
  18085.00  1.9602406E-01
  18086.00  1.9477694E-01
  18087.00  1.9345854E-01
  18088.00  1.9208229E-01
  18089.00  1.9065673E-01
  18090.00  1.8918908E-01
  18091.00  1.8768856E-01
  18092.00  1.8616857E-01
  18093.00  1.8464718E-01
  18094.00  1.8314626E-01
  18095.00  1.8168948E-01
  18096.00  1.8029979E-01
  18097.00  1.7899687E-01
  18098.00  1.7779521E-01
