    Energy    <xanes>    
   7072.00  1.2758520E-04
   7072.50  1.2910797E-04
   7073.00  1.3066475E-04
   7073.50  1.3225668E-04
   7074.00  1.3388494E-04
   7074.50  1.3555079E-04
   7075.00  1.3725552E-04
   7075.50  1.3900049E-04
   7076.00  1.4078713E-04
   7076.50  1.4261691E-04
   7077.00  1.4449142E-04
   7077.50  1.4641228E-04
   7078.00  1.4838121E-04
   7078.50  1.5040003E-04
   7079.00  1.5247061E-04
   7079.50  1.5459497E-04
   7080.00  1.5677518E-04
   7080.50  1.5901346E-04
   7081.00  1.6131213E-04
   7081.50  1.6367364E-04
   7082.00  1.6610056E-04
   7082.50  1.6859561E-04
   7083.00  1.7116168E-04
   7083.50  1.7380180E-04
   7084.00  1.7651918E-04
   7084.50  1.7931722E-04
   7085.00  1.8219953E-04
   7085.50  1.8516993E-04
   7086.00  1.8823246E-04
   7086.50  1.9139143E-04
   7087.00  1.9465142E-04
   7087.50  1.9801730E-04
   7088.00  2.0149425E-04
   7088.50  2.0508781E-04
   7089.00  2.0880386E-04
   7089.50  2.1264873E-04
   7090.00  2.1662916E-04
   7090.50  2.2075237E-04
   7091.00  2.2502612E-04
   7091.50  2.2945872E-04
   7092.00  2.3405913E-04
   7092.50  2.3883697E-04
   7093.00  2.4380264E-04
   7093.50  2.4896735E-04
   7094.00  2.5434325E-04
   7094.50  2.5994348E-04
   7095.00  2.6578231E-04
   7095.50  2.7187528E-04
   7096.00  2.7823931E-04
   7096.50  2.8489288E-04
   7097.00  2.9185620E-04
   7097.50  2.9915149E-04
   7098.00  3.0680314E-04
   7098.50  3.1483811E-04
   7099.00  3.2328618E-04
   7099.50  3.3218046E-04
   7100.00  3.4155779E-04
   7100.50  3.5145941E-04
   7101.00  3.6193164E-04
   7101.50  3.7302677E-04
   7102.00  3.8480414E-04
   7102.50  3.9733152E-04
   7103.00  4.1068685E-04
   7103.50  4.2496049E-04
   7104.00  4.4025817E-04
   7104.50  4.5670502E-04
   7105.00  4.7445103E-04
   7105.50  4.9367889E-04
   7106.00  5.1461538E-04
   7106.50  5.3754858E-04
   7107.00  5.6285515E-04
   7107.10  5.6824308E-04
   7107.20  5.7375059E-04
   7107.30  5.7938293E-04
   7107.40  5.8514574E-04
   7107.50  5.9104510E-04
   7107.60  5.9708757E-04
   7107.70  6.0328024E-04
   7107.80  6.0963080E-04
   7107.90  6.1614763E-04
   7108.00  6.2283983E-04
   7108.10  6.2971737E-04
   7108.20  6.3679115E-04
   7108.30  6.4407316E-04
   7108.40  6.5157661E-04
   7108.50  6.5931610E-04
   7108.60  6.6730784E-04
   7108.70  6.7556984E-04
   7108.80  6.8412224E-04
   7108.90  6.9298758E-04
   7109.00  7.0219124E-04
   7109.10  7.1176188E-04
   7109.20  7.2173199E-04
   7109.30  7.3213859E-04
   7109.40  7.4302400E-04
   7109.50  7.5443687E-04
   7109.60  7.6643339E-04
   7109.70  7.7907871E-04
   7109.80  7.9244888E-04
   7109.90  8.0663304E-04
   7110.00  8.2173631E-04
   7110.10  8.3788334E-04
   7110.20  8.5522283E-04
   7110.30  8.7393324E-04
   7110.40  8.9423005E-04
   7110.50  9.1637508E-04
   7110.60  9.4068837E-04
   7110.70  9.6756350E-04
   7110.80  9.9748709E-04
   7110.90  1.0310637E-03
   7111.00  1.0690467E-03
   7111.10  1.1123761E-03
   7111.20  1.1622217E-03
   7111.30  1.2200264E-03
   7111.40  1.2875376E-03
   7111.50  1.3667970E-03
   7111.60  1.4600330E-03
   7111.70  1.5693611E-03
   7111.80  1.6961529E-03
   7111.90  1.8399126E-03
   7112.00  1.9965615E-03
   7112.10  2.1563042E-03
   7112.20  2.3020188E-03
   7112.30  2.4111166E-03
   7112.40  2.4629012E-03
   7112.50  2.4489171E-03
   7112.60  2.3780304E-03
   7112.70  2.2711879E-03
   7112.80  2.1509525E-03
   7112.90  2.0341136E-03
   7113.00  1.9299946E-03
   7113.10  1.8421484E-03
   7113.20  1.7707377E-03
   7113.30  1.7143527E-03
   7113.40  1.6710863E-03
   7113.50  1.6390609E-03
   7113.60  1.6166348E-03
   7113.70  1.6024479E-03
   7113.80  1.5954003E-03
   7113.90  1.5946119E-03
   7114.00  1.5993822E-03
   7114.10  1.6091566E-03
   7114.20  1.6235013E-03
   7114.30  1.6420832E-03
   7114.40  1.6646550E-03
   7114.50  1.6910440E-03
   7114.60  1.7211428E-03
   7114.70  1.7549031E-03
   7114.80  1.7923302E-03
   7114.90  1.8334801E-03
   7115.00  1.8784563E-03
   7115.10  1.9274104E-03
   7115.20  1.9805417E-03
   7115.30  2.0381000E-03
   7115.40  2.1003890E-03
   7115.50  2.1677705E-03
   7115.60  2.2406710E-03
   7115.70  2.3195889E-03
   7115.80  2.4051034E-03
   7115.90  2.4978848E-03
   7116.00  2.5987069E-03
   7116.10  2.7084594E-03
   7116.20  2.8281616E-03
   7116.30  2.9589747E-03
   7116.40  3.1022121E-03
   7116.50  3.2593425E-03
   7116.60  3.4319822E-03
   7116.70  3.6218673E-03
   7116.80  3.8307952E-03
   7116.90  4.0605219E-03
   7117.00  4.3125991E-03
   7117.20  4.8875425E-03
   7117.40  5.5540007E-03
   7117.60  6.2912313E-03
   7117.80  7.0641114E-03
   7118.00  7.8448517E-03
   7118.20  8.6316970E-03
   7118.40  9.4430214E-03
   7118.60  1.0294654E-02
   7118.80  1.1180827E-02
   7119.00  1.2071215E-02
   7119.20  1.2926998E-02
   7119.40  1.3726753E-02
   7119.60  1.4481269E-02
   7119.80  1.5223672E-02
   7120.00  1.5984092E-02
   7120.20  1.6772124E-02
   7120.40  1.7582929E-02
   7120.60  1.8418344E-02
   7120.80  1.9299115E-02
   7121.00  2.0256913E-02
   7121.20  2.1317103E-02
   7121.40  2.2488566E-02
   7121.60  2.3766158E-02
   7121.80  2.5140157E-02
   7122.00  2.6603280E-02
   7122.20  2.8149569E-02
   7122.40  2.9766557E-02
   7122.60  3.1425974E-02
   7122.80  3.3077735E-02
   7123.00  3.4650724E-02
   7123.20  3.6062750E-02
   7123.40  3.7238192E-02
   7123.60  3.8126225E-02
   7123.80  3.8711008E-02
   7124.00  3.9010740E-02
   7124.20  3.9069543E-02
   7124.40  3.8947658E-02
   7124.60  3.8712336E-02
   7124.80  3.8429420E-02
   7125.00  3.8156097E-02
   7125.20  3.7936311E-02
   7125.40  3.7799693E-02
   7125.60  3.7763228E-02
   7125.80  3.7833900E-02
   7126.00  3.8010906E-02
   7126.20  3.8287154E-02
   7126.40  3.8650464E-02
   7126.60  3.9084863E-02
   7126.80  3.9571990E-02
   7127.00  4.0092349E-02
   7127.20  4.0626199E-02
   7127.40  4.1154084E-02
   7127.60  4.1657149E-02
   7127.80  4.2117440E-02
   7128.00  4.2518312E-02
   7128.20  4.2844969E-02
   7128.40  4.3085085E-02
   7128.60  4.3229416E-02
   7128.80  4.3272304E-02
   7129.00  4.3212011E-02
   7129.20  4.3050798E-02
   7129.40  4.2794723E-02
   7129.60  4.2453139E-02
   7129.80  4.2037924E-02
   7130.00  4.1562554E-02
   7130.20  4.1041107E-02
   7130.40  4.0487356E-02
   7130.60  3.9914024E-02
   7130.80  3.9332284E-02
   7131.00  3.8751495E-02
   7131.20  3.8179157E-02
   7131.40  3.7621026E-02
   7131.60  3.7081330E-02
   7131.80  3.6563017E-02
   7132.00  3.6068004E-02
   7133.00  3.3960055E-02
   7134.00  3.2396226E-02
   7135.00  3.1208082E-02
   7136.00  3.0267741E-02
   7137.00  2.9536010E-02
   7138.00  2.9020939E-02
   7139.00  2.8728141E-02
   7140.00  2.8634743E-02
   7141.00  2.8674562E-02
   7142.00  2.8740873E-02
   7143.00  2.8722560E-02
   7144.00  2.8550071E-02
   7145.00  2.8212334E-02
   7146.00  2.7744252E-02
   7147.00  2.7207541E-02
   7148.00  2.6673142E-02
   7149.00  2.6204890E-02
   7150.00  2.5848564E-02
   7151.00  2.5629365E-02
   7152.00  2.5555255E-02
   7153.00  2.5621377E-02
   7154.00  2.5813013E-02
   7155.00  2.6107765E-02
   7156.00  2.6478671E-02
   7157.00  2.6898264E-02
   7158.00  2.7342132E-02
   7159.00  2.7791224E-02
   7160.00  2.8233385E-02
   7161.00  2.8664165E-02
   7162.00  2.9085899E-02
   7163.00  2.9504317E-02
   7164.00  2.9923706E-02
   7165.00  3.0343188E-02
   7166.00  3.0756167E-02
   7167.00  3.1152787E-02
   7168.00  3.1523288E-02
   7169.00  3.1860112E-02
   7170.00  3.2158268E-02
   7171.00  3.2414893E-02
   7172.00  3.2629053E-02
   7173.00  3.2801993E-02
   7174.00  3.2937282E-02
   7175.00  3.3040240E-02
   7176.00  3.3116507E-02
   7177.00  3.3170234E-02
   7178.00  3.3202756E-02
   7179.00  3.3212631E-02
   7180.00  3.3197304E-02
   7181.00  3.3155645E-02
   7182.00  3.3089827E-02
   7183.00  3.3005378E-02
   7184.00  3.2909606E-02
   7185.00  3.2809618E-02
   7186.00  3.2711108E-02
   7187.00  3.2618070E-02
   7188.00  3.2532943E-02
   7189.00  3.2456732E-02
   7190.00  3.2389090E-02
   7191.00  3.2328654E-02
   7192.00  3.2273810E-02
   7193.00  3.2223606E-02
   7194.00  3.2178268E-02
   7195.00  3.2138948E-02
   7196.00  3.2106834E-02
   7197.00  3.2082165E-02
   7198.00  3.2063600E-02
   7199.00  3.2048071E-02
   7200.00  3.2030961E-02
   7201.00  3.2006470E-02
   7202.00  3.1968147E-02
   7203.00  3.1909665E-02
   7204.00  3.1825826E-02
   7205.00  3.1713609E-02
   7206.00  3.1572977E-02
   7207.00  3.1407198E-02
   7208.00  3.1222523E-02
   7209.00  3.1027243E-02
   7210.00  3.0830327E-02
   7211.00  3.0640007E-02
   7212.00  3.0462666E-02
