    Energy    <xanes>    
   7072.00  6.4091534E-04
   7072.50  6.4821680E-04
   7073.00  6.5567508E-04
   7073.50  6.6329525E-04
   7074.00  6.7108260E-04
   7074.50  6.7904263E-04
   7075.00  6.8718111E-04
   7075.50  6.9550403E-04
   7076.00  7.0401770E-04
   7076.50  7.1272869E-04
   7077.00  7.2164388E-04
   7077.50  7.3077046E-04
   7078.00  7.4011599E-04
   7078.50  7.4968837E-04
   7079.00  7.5949589E-04
   7079.50  7.6954725E-04
   7080.00  7.7985159E-04
   7080.50  7.9041849E-04
   7081.00  8.0125804E-04
   7081.50  8.1238085E-04
   7082.00  8.2379807E-04
   7082.50  8.3552147E-04
   7083.00  8.4756343E-04
   7083.50  8.5993703E-04
   7084.00  8.7265605E-04
   7084.50  8.8573506E-04
   7085.00  8.9918946E-04
   7085.50  9.1303555E-04
   7086.00  9.2729057E-04
   7086.50  9.4197280E-04
   7087.00  9.5710164E-04
   7087.50  9.7269767E-04
   7088.00  9.8878276E-04
   7088.50  1.0053802E-03
   7089.00  1.0225147E-03
   7089.50  1.0402128E-03
   7090.00  1.0585026E-03
   7090.50  1.0774143E-03
   7091.00  1.0969800E-03
   7091.50  1.1172342E-03
   7092.00  1.1382141E-03
   7092.50  1.1599594E-03
   7093.00  1.1825127E-03
   7093.50  1.2059203E-03
   7094.00  1.2302318E-03
   7094.50  1.2555010E-03
   7095.00  1.2817861E-03
   7095.50  1.3091503E-03
   7096.00  1.3376622E-03
   7096.50  1.3673969E-03
   7097.00  1.3984360E-03
   7097.50  1.4308692E-03
   7098.00  1.4647950E-03
   7098.50  1.5003219E-03
   7099.00  1.5375699E-03
   7099.50  1.5766721E-03
   7100.00  1.6177769E-03
   7100.50  1.6610506E-03
   7101.00  1.7066800E-03
   7101.50  1.7548769E-03
   7102.00  1.8058824E-03
   7102.50  1.8599732E-03
   7103.00  1.9174698E-03
   7103.50  1.9787470E-03
   7104.00  2.0442478E-03
   7104.50  2.1145035E-03
   7105.00  2.1901612E-03
   7105.50  2.2720241E-03
   7106.00  2.3611112E-03
   7106.50  2.4587501E-03
   7107.00  2.5667264E-03
   7107.10  2.5900001E-03
   7107.20  2.6135249E-03
   7107.30  2.6373140E-03
   7107.37  2.6531988E-03
   7107.47  2.6781966E-03
   7107.57  2.7039886E-03
   7107.67  2.7304706E-03
   7107.77  2.7576032E-03
   7107.87  2.7854261E-03
   7107.97  2.8139831E-03
   7107.99  2.8215964E-03
   7108.09  2.8513431E-03
   7108.19  2.8820093E-03
   7108.29  2.9136578E-03
   7108.39  2.9463579E-03
   7108.49  2.9801868E-03
   7108.59  3.0152304E-03
   7108.69  3.0515849E-03
   7108.79  3.0893583E-03
   7108.89  3.1286722E-03
   7108.99  3.1696639E-03
   7109.09  3.2124896E-03
   7109.19  3.2573268E-03
   7109.29  3.3043789E-03
   7109.39  3.3538795E-03
   7109.49  3.4060983E-03
   7109.59  3.4613481E-03
   7109.69  3.5199935E-03
   7109.79  3.5824616E-03
   7109.89  3.6492555E-03
   7109.99  3.7209714E-03
   7110.09  3.7983192E-03
   7110.19  3.8821500E-03
   7110.29  3.9734897E-03
   7110.39  4.0735827E-03
   7110.49  4.1839475E-03
   7110.59  4.3064472E-03
   7110.69  4.4433790E-03
   7110.79  4.5975861E-03
   7110.89  4.7725936E-03
   7110.99  4.9727651E-03
   7111.09  5.2034640E-03
   7111.19  5.4711752E-03
   7111.29  5.7834880E-03
   7111.39  6.1487384E-03
   7111.49  6.5749648E-03
   7111.59  7.0676993E-03
   7111.69  7.6262638E-03
   7111.79  8.2391609E-03
   7111.89  8.8810683E-03
   7111.99  9.5152343E-03
   7112.09  1.0102144E-02
   7112.19  1.0609127E-02
   7112.29  1.1013269E-02
   7112.39  1.1298435E-02
   7112.49  1.1454748E-02
   7112.59  1.1484329E-02
   7112.69  1.1406567E-02
   7112.79  1.1254893E-02
   7112.89  1.1065767E-02
   7112.99  1.0867848E-02
   7113.09  1.0677599E-02
   7113.19  1.0500873E-02
   7113.29  1.0337393E-02
   7113.39  1.0185252E-02
   7113.49  1.0043664E-02
   7113.59  9.9128856E-03
   7113.69  9.7920336E-03
   7113.79  9.6779252E-03
   7113.89  9.5674940E-03
   7113.99  9.4617334E-03
   7114.09  9.3661355E-03
   7114.19  9.2863836E-03
   7114.29  9.2237958E-03
   7114.39  9.1746365E-03
   7114.49  9.1324040E-03
   7114.59  9.0898014E-03
   7114.69  9.0394652E-03
   7114.79  8.9753563E-03
   7114.89  8.8957283E-03
   7114.99  8.8053589E-03
   7115.09  8.7143909E-03
   7115.19  8.6344252E-03
   7115.29  8.5748452E-03
   7115.39  8.5412898E-03
   7115.49  8.5360391E-03
   7115.59  8.5591741E-03
   7115.69  8.6096682E-03
   7115.79  8.6861160E-03
   7115.89  8.7871289E-03
   7115.99  8.9115218E-03
   7116.09  9.0583904E-03
   7116.19  9.2271388E-03
   7116.29  9.4174835E-03
   7116.39  9.6294477E-03
   7116.49  9.8633517E-03
   7116.59  1.0119804E-02
   7116.69  1.0399694E-02
   7116.79  1.0704183E-02
   7116.89  1.1034700E-02
   7116.99  1.1392929E-02
   7117.09  1.1789059E-02
   7117.19  1.2201190E-02
   7117.29  1.2663937E-02
   7117.39  1.3147805E-02
   7117.49  1.3691662E-02
   7117.59  1.4251434E-02
   7117.69  1.4885557E-02
   7117.79  1.5538447E-02
   7117.89  1.6276652E-02
   7117.99  1.7036959E-02
   7118.19  1.8777308E-02
   7118.39  2.0786544E-02
   7118.59  2.3078496E-02
   7118.79  2.5644984E-02
   7118.99  2.8453759E-02
   7119.19  3.1452395E-02
   7119.39  3.4579700E-02
   7119.59  3.7788499E-02
   7119.79  4.1064475E-02
   7119.99  4.4420599E-02
   7120.19  4.7876976E-02
   7120.39  5.1449781E-02
   7120.59  5.5148563E-02
   7120.79  5.8967423E-02
   7120.99  6.2874491E-02
   7121.19  6.6815690E-02
   7121.39  7.0734326E-02
   7121.59  7.4592969E-02
   7121.79  7.8380718E-02
   7121.99  8.2101808E-02
   7122.19  8.5763608E-02
   7122.39  8.9384884E-02
   7122.59  9.3019531E-02
   7122.79  9.6767409E-02
   7122.99  1.0075519E-01
   7123.19  1.0510113E-01
   7123.39  1.0988889E-01
   7123.59  1.1516108E-01
   7123.79  1.2092612E-01
   7123.99  1.2716835E-01
   7124.19  1.3385488E-01
   7124.39  1.4093706E-01
   7124.59  1.4834658E-01
   7124.79  1.5598914E-01
   7124.99  1.6373976E-01
   7125.19  1.7144344E-01
   7125.39  1.7892333E-01
   7125.59  1.8599589E-01
   7125.79  1.9249039E-01
   7125.99  1.9826761E-01
   7126.19  2.0323276E-01
   7126.39  2.0733990E-01
   7126.59  2.1058869E-01
   7126.79  2.1301655E-01
   7126.99  2.1468986E-01
   7127.19  2.1569591E-01
   7127.39  2.1613580E-01
   7127.59  2.1611797E-01
   7127.79  2.1575208E-01
   7127.99  2.1514321E-01
   7128.19  2.1438657E-01
   7128.39  2.1356283E-01
   7128.59  2.1273483E-01
   7128.79  2.1194590E-01
   7128.99  2.1122002E-01
   7129.19  2.1056349E-01
   7129.39  2.0996761E-01
   7129.59  2.0941168E-01
   7129.79  2.0886639E-01
   7129.99  2.0829713E-01
   7130.19  2.0766758E-01
   7130.39  2.0694310E-01
   7130.59  2.0609401E-01
   7130.79  2.0509816E-01
   7130.99  2.0394285E-01
   7131.19  2.0262555E-01
   7131.39  2.0115381E-01
   7131.59  1.9954402E-01
   7131.79  1.9781968E-01
   7131.99  1.9600906E-01
   7132.19  1.9419909E-01
   7132.39  1.9235595E-01
   7132.59  1.9054153E-01
   7132.79  1.8869356E-01
   7132.99  1.8681892E-01
   7133.99  1.7907467E-01
   7134.99  1.7360592E-01
   7135.99  1.6995281E-01
   7136.99  1.6737120E-01
   7137.99  1.6538166E-01
   7138.99  1.6380481E-01
   7139.99  1.6253325E-01
   7140.99  1.6135555E-01
   7141.99  1.5998017E-01
   7142.99  1.5818066E-01
   7143.99  1.5590095E-01
   7144.99  1.5323867E-01
   7145.99  1.5035100E-01
   7146.99  1.4736887E-01
   7147.99  1.4436651E-01
   7148.99  1.4138393E-01
   7149.99  1.3846713E-01
   7150.99  1.3568953E-01
   7151.99  1.3314579E-01
   7152.99  1.3093329E-01
   7153.99  1.2913646E-01
   7154.99  1.2781762E-01
   7155.99  1.2701158E-01
   7156.99  1.2672401E-01
   7157.99  1.2693443E-01
   7158.99  1.2760288E-01
   7159.99  1.2867736E-01
   7160.99  1.3009959E-01
   7161.99  1.3180983E-01
   7162.99  1.3375239E-01
   7163.99  1.3588081E-01
   7164.99  1.3815952E-01
   7165.99  1.4056062E-01
   7166.99  1.4305791E-01
   7167.99  1.4562213E-01
   7168.99  1.4821900E-01
   7169.99  1.5080922E-01
   7170.99  1.5334948E-01
   7171.99  1.5579443E-01
   7172.99  1.5810027E-01
   7173.99  1.6022900E-01
   7174.99  1.6215145E-01
   7175.99  1.6384763E-01
   7176.99  1.6530456E-01
   7177.99  1.6651380E-01
   7178.99  1.6747082E-01
   7179.99  1.6817670E-01
   7180.99  1.6864097E-01
   7181.99  1.6888339E-01
   7182.99  1.6893368E-01
   7183.99  1.6882880E-01
   7184.99  1.6860857E-01
   7185.99  1.6831108E-01
   7186.99  1.6796932E-01
   7187.99  1.6760983E-01
   7188.99  1.6725359E-01
   7189.99  1.6691786E-01
   7190.99  1.6661776E-01
   7191.99  1.6636631E-01
   7192.99  1.6617289E-01
   7193.99  1.6604098E-01
   7194.99  1.6596610E-01
   7195.99  1.6593545E-01
   7196.99  1.6592948E-01
   7197.99  1.6592567E-01
   7198.99  1.6590316E-01
   7199.99  1.6584663E-01
   7200.99  1.6574814E-01
   7201.99  1.6560649E-01
   7202.99  1.6542524E-01
   7203.99  1.6521063E-01
   7204.99  1.6497037E-01
   7205.99  1.6471324E-01
   7206.99  1.6444877E-01
   7207.99  1.6418667E-01
   7208.99  1.6393578E-01
   7209.99  1.6370321E-01
   7210.99  1.6349372E-01
   7211.99  1.6330963E-01
