    Energy    <xanes>    
   9619.00  1.5091390E-04
   9619.50  1.5286993E-04
   9620.00  1.5487453E-04
   9620.50  1.5692953E-04
   9621.00  1.5903681E-04
   9621.50  1.6119837E-04
   9622.00  1.6341633E-04
   9622.50  1.6569287E-04
   9623.00  1.6803033E-04
   9623.50  1.7043115E-04
   9624.00  1.7289792E-04
   9624.50  1.7543333E-04
   9625.00  1.7804028E-04
   9625.50  1.8072177E-04
   9626.00  1.8348101E-04
   9626.50  1.8632137E-04
   9627.00  1.8924644E-04
   9627.50  1.9226000E-04
   9628.00  1.9536607E-04
   9628.50  1.9856889E-04
   9629.00  2.0187299E-04
   9629.50  2.0528315E-04
   9630.00  2.0880450E-04
   9630.50  2.1244244E-04
   9631.00  2.1620277E-04
   9631.50  2.2009164E-04
   9632.00  2.2411564E-04
   9632.50  2.2828179E-04
   9633.00  2.3259761E-04
   9633.50  2.3707114E-04
   9634.00  2.4171101E-04
   9634.50  2.4652645E-04
   9635.00  2.5152742E-04
   9635.50  2.5672459E-04
   9636.00  2.6212947E-04
   9636.50  2.6775447E-04
   9637.00  2.7361298E-04
   9637.50  2.7971950E-04
   9638.00  2.8608970E-04
   9638.50  2.9274060E-04
   9639.00  2.9969066E-04
   9639.50  3.0695998E-04
   9640.00  3.1457047E-04
   9640.50  3.2254603E-04
   9641.00  3.3091279E-04
   9641.50  3.3969943E-04
   9642.00  3.4893738E-04
   9642.50  3.5866126E-04
   9643.00  3.6890923E-04
   9643.50  3.7972346E-04
   9644.00  3.9115068E-04
   9644.50  4.0324279E-04
   9645.00  4.1605759E-04
   9645.50  4.2965961E-04
   9646.00  4.4412116E-04
   9646.50  4.5952348E-04
   9647.00  4.7595818E-04
   9647.50  4.9352889E-04
   9648.00  5.1235334E-04
   9648.50  5.3256582E-04
   9649.00  5.5432016E-04
   9649.50  5.7779343E-04
   9650.00  6.0319059E-04
   9650.50  6.3075017E-04
   9651.00  6.6075162E-04
   9651.50  6.9352470E-04
   9652.00  7.2946177E-04
   9652.50  7.6903420E-04
   9653.00  8.1281488E-04
   9653.50  8.6150996E-04
   9654.00  9.1600582E-04
   9654.10  9.2769578E-04
   9654.20  9.3967280E-04
   9654.30  9.5194813E-04
   9654.40  9.6453369E-04
   9654.50  9.7744215E-04
   9654.60  9.9068701E-04
   9654.70  1.0042827E-03
   9654.80  1.0182446E-03
   9654.90  1.0325892E-03
   9655.00  1.0473343E-03
   9655.10  1.0624991E-03
   9655.20  1.0781043E-03
   9655.30  1.0941723E-03
   9655.40  1.1107277E-03
   9655.50  1.1277971E-03
   9655.60  1.1454100E-03
   9655.70  1.1635986E-03
   9655.80  1.1823989E-03
   9655.90  1.2018505E-03
   9656.00  1.2219979E-03
   9656.10  1.2428911E-03
   9656.20  1.2645863E-03
   9656.30  1.2871470E-03
   9656.40  1.3106454E-03
   9656.50  1.3351635E-03
   9656.60  1.3607944E-03
   9656.70  1.3876436E-03
   9656.80  1.4158295E-03
   9656.90  1.4454829E-03
   9657.00  1.4767445E-03
   9657.10  1.5097582E-03
   9657.20  1.5446586E-03
   9657.30  1.5815486E-03
   9657.40  1.6204658E-03
   9657.50  1.6613362E-03
   9657.60  1.7039231E-03
   9657.70  1.7477892E-03
   9657.80  1.7923038E-03
   9657.90  1.8367831E-03
   9658.00  1.8806780E-03
   9658.10  1.9235865E-03
   9658.20  1.9655159E-03
   9658.30  2.0068968E-03
   9658.40  2.0484497E-03
   9658.50  2.0909853E-03
   9658.60  2.1352287E-03
   9658.70  2.1817158E-03
   9658.80  2.2307604E-03
   9658.90  2.2824720E-03
   9659.00  2.3368023E-03
   9659.10  2.3936135E-03
   9659.20  2.4527627E-03
   9659.30  2.5141943E-03
   9659.40  2.5780194E-03
   9659.50  2.6445571E-03
   9659.60  2.7143201E-03
   9659.70  2.7879538E-03
   9659.80  2.8661586E-03
   9659.90  2.9496276E-03
   9660.00  3.0390175E-03
   9660.10  3.1349481E-03
   9660.20  3.2380200E-03
   9660.30  3.3488384E-03
   9660.40  3.4680353E-03
   9660.50  3.5962867E-03
   9660.60  3.7343224E-03
   9660.70  3.8829281E-03
   9660.80  4.0429389E-03
   9660.90  4.2152244E-03
   9661.00  4.4006653E-03
   9661.10  4.6001309E-03
   9661.20  4.8144680E-03
   9661.30  5.0445265E-03
   9661.40  5.2912432E-03
   9661.50  5.5557944E-03
   9661.60  5.8397910E-03
   9661.70  6.1454553E-03
   9661.80  6.4757105E-03
   9661.90  6.8341508E-03
   9662.00  7.2249213E-03
   9662.10  7.6525664E-03
   9662.20  8.1219001E-03
   9662.30  8.6379121E-03
   9662.40  9.2056896E-03
   9662.50  9.8303212E-03
   9662.60  1.0516743E-02
   9662.70  1.1269499E-02
   9662.80  1.2092395E-02
   9662.90  1.2988054E-02
   9663.00  1.3957375E-02
   9663.10  1.4998983E-02
   9663.20  1.6108724E-02
   9663.30  1.7279349E-02
   9663.40  1.8500454E-02
   9663.50  1.9758753E-02
   9663.60  2.1038596E-02
   9663.70  2.2322640E-02
   9663.80  2.3592523E-02
   9663.90  2.4829531E-02
   9664.00  2.6015380E-02
   9664.20  2.8169599E-02
   9664.40  2.9967119E-02
   9664.60  3.1410213E-02
   9664.80  3.2585605E-02
   9665.00  3.3603191E-02
   9665.20  3.4534173E-02
   9665.40  3.5396995E-02
   9665.60  3.6186462E-02
   9665.80  3.6908379E-02
   9666.00  3.7590334E-02
   9666.20  3.8268910E-02
   9666.40  3.8971227E-02
   9666.60  3.9704351E-02
   9666.80  4.0454986E-02
   9667.00  4.1196051E-02
   9667.20  4.1895571E-02
   9667.40  4.2523486E-02
   9667.60  4.3053537E-02
   9667.80  4.3460350E-02
   9668.00  4.3714538E-02
   9668.20  4.3779967E-02
   9668.40  4.3617204E-02
   9668.60  4.3195032E-02
   9668.80  4.2506313E-02
   9669.00  4.1578660E-02
   9669.20  4.0471626E-02
   9669.40  3.9261465E-02
   9669.60  3.8022966E-02
   9669.80  3.6817425E-02
   9670.00  3.5689081E-02
   9670.20  3.4666737E-02
   9670.40  3.3766350E-02
   9670.60  3.2992559E-02
   9670.80  3.2339466E-02
   9671.00  3.1791873E-02
   9671.20  3.1327729E-02
   9671.40  3.0921579E-02
   9671.60  3.0548173E-02
   9671.80  3.0185320E-02
   9672.00  2.9815492E-02
   9672.20  2.9426238E-02
   9672.40  2.9009808E-02
   9672.60  2.8562431E-02
   9672.80  2.8083561E-02
   9673.00  2.7575217E-02
   9673.20  2.7041443E-02
   9673.40  2.6487852E-02
   9673.60  2.5921212E-02
   9673.80  2.5349026E-02
   9674.00  2.4779082E-02
   9674.20  2.4218988E-02
   9674.40  2.3675742E-02
   9674.60  2.3155379E-02
   9674.80  2.2662740E-02
   9675.00  2.2201380E-02
   9675.20  2.1773601E-02
   9675.40  2.1380578E-02
   9675.60  2.1022547E-02
   9675.80  2.0699018E-02
   9676.00  2.0408976E-02
   9676.20  2.0151064E-02
   9676.40  1.9923724E-02
   9676.60  1.9725297E-02
   9676.80  1.9554092E-02
   9677.00  1.9408421E-02
   9677.20  1.9286614E-02
   9677.40  1.9187033E-02
   9677.60  1.9108069E-02
   9677.80  1.9048147E-02
   9678.00  1.9005737E-02
   9678.20  1.8979355E-02
   9678.40  1.8967570E-02
   9678.60  1.8969012E-02
   9678.80  1.8982364E-02
   9679.00  1.9006359E-02
   9680.00  1.9243856E-02
   9681.00  1.9571549E-02
   9682.00  1.9863173E-02
   9683.00  2.0040175E-02
   9684.00  2.0071553E-02
   9685.00  1.9945670E-02
   9686.00  1.9661961E-02
   9687.00  1.9246919E-02
   9688.00  1.8762064E-02
   9689.00  1.8288808E-02
   9690.00  1.7903113E-02
   9691.00  1.7658492E-02
   9692.00  1.7582915E-02
   9693.00  1.7683524E-02
   9694.00  1.7952460E-02
   9695.00  1.8371679E-02
   9696.00  1.8917299E-02
   9697.00  1.9563501E-02
   9698.00  2.0284519E-02
   9699.00  2.1053818E-02
   9700.00  2.1842076E-02
   9701.00  2.2616931E-02
   9702.00  2.3345835E-02
   9703.00  2.4000690E-02
   9704.00  2.4561754E-02
   9705.00  2.5019133E-02
   9706.00  2.5371782E-02
   9707.00  2.5625035E-02
   9708.00  2.5787900E-02
   9709.00  2.5870921E-02
   9710.00  2.5884784E-02
   9711.00  2.5839411E-02
   9712.00  2.5743329E-02
   9713.00  2.5603380E-02
   9714.00  2.5425093E-02
   9715.00  2.5213839E-02
   9716.00  2.4976364E-02
   9717.00  2.4721725E-02
   9718.00  2.4460837E-02
   9719.00  2.4204630E-02
   9720.00  2.3961736E-02
   9721.00  2.3736780E-02
   9722.00  2.3529881E-02
   9723.00  2.3337341E-02
   9724.00  2.3153192E-02
   9725.00  2.2971134E-02
   9726.00  2.2786440E-02
   9727.00  2.2597382E-02
   9728.00  2.2405925E-02
   9729.00  2.2217512E-02
   9730.00  2.2039951E-02
   9731.00  2.1881635E-02
   9732.00  2.1749602E-02
   9733.00  2.1648025E-02
   9734.00  2.1577636E-02
   9735.00  2.1536225E-02
   9736.00  2.1519977E-02
   9737.00  2.1525094E-02
   9738.00  2.1549008E-02
   9739.00  2.1590768E-02
   9740.00  2.1650584E-02
   9741.00  2.1728957E-02
   9742.00  2.1825877E-02
   9743.00  2.1940434E-02
   9744.00  2.2070863E-02
   9745.00  2.2214916E-02
   9746.00  2.2370343E-02
   9747.00  2.2535288E-02
   9748.00  2.2708480E-02
   9749.00  2.2889179E-02
   9750.00  2.3076964E-02
   9751.00  2.3271436E-02
   9752.00  2.3471892E-02
   9753.00  2.3676989E-02
   9754.00  2.3884458E-02
   9755.00  2.4091019E-02
   9756.00  2.4292617E-02
   9757.00  2.4484985E-02
   9758.00  2.4664375E-02
   9759.00  2.4828164E-02
