    Energy    <xanes>    
   7072.00  8.2409321E-04
   7072.50  8.3393904E-04
   7073.00  8.4409580E-04
   7073.50  8.5448959E-04
   7074.00  8.6512877E-04
   7074.50  8.7602210E-04
   7075.00  8.8717875E-04
   7075.50  8.9860834E-04
   7076.00  9.1032097E-04
   7076.50  9.2232722E-04
   7077.00  9.3463822E-04
   7077.50  9.4726568E-04
   7078.00  9.6022188E-04
   7078.50  9.7351977E-04
   7079.00  9.8717296E-04
   7079.50  1.0011958E-03
   7080.00  1.0156035E-03
   7080.50  1.0304119E-03
   7081.00  1.0456380E-03
   7081.50  1.0612996E-03
   7082.00  1.0774154E-03
   7082.50  1.0940054E-03
   7083.00  1.1110908E-03
   7083.50  1.1286939E-03
   7084.00  1.1468385E-03
   7084.50  1.1655497E-03
   7085.00  1.1848544E-03
   7085.50  1.2047810E-03
   7086.00  1.2253599E-03
   7086.50  1.2466233E-03
   7087.00  1.2686059E-03
   7087.50  1.2913444E-03
   7088.00  1.3148781E-03
   7088.50  1.3392493E-03
   7089.00  1.3645030E-03
   7089.50  1.3906877E-03
   7090.00  1.4178555E-03
   7090.50  1.4460622E-03
   7091.00  1.4753682E-03
   7091.50  1.5058383E-03
   7092.00  1.5375428E-03
   7092.50  1.5705575E-03
   7093.00  1.6049646E-03
   7093.50  1.6408533E-03
   7094.00  1.6783206E-03
   7094.50  1.7174719E-03
   7095.00  1.7584222E-03
   7095.50  1.8012975E-03
   7096.00  1.8462352E-03
   7096.50  1.8933866E-03
   7097.00  1.9429178E-03
   7097.50  1.9950119E-03
   7098.00  2.0498712E-03
   7098.50  2.1077200E-03
   7099.00  2.1688073E-03
   7099.50  2.2334104E-03
   7100.00  2.3018395E-03
   7100.50  2.3744419E-03
   7101.00  2.4516089E-03
   7101.50  2.5337819E-03
   7102.00  2.6214615E-03
   7102.50  2.7152177E-03
   7103.00  2.8157026E-03
   7103.50  2.9236658E-03
   7104.00  3.0399742E-03
   7104.50  3.1656358E-03
   7105.00  3.3018313E-03
   7105.50  3.4499536E-03
   7106.00  3.6116603E-03
   7106.50  3.7889438E-03
   7107.00  3.9842259E-03
   7107.01  3.9892838E-03
   7107.11  4.0307591E-03
   7107.21  4.0728674E-03
   7107.31  4.1160673E-03
   7107.41  4.1607349E-03
   7107.51  4.2061037E-03
   7107.61  4.2521989E-03
   7107.71  4.2990469E-03
   7107.81  4.3471831E-03
   7107.91  4.3970476E-03
   7108.01  4.4477533E-03
   7108.11  4.4993329E-03
   7108.21  4.5518215E-03
   7108.28  4.5861991E-03
   7108.38  4.6412256E-03
   7108.48  4.6976089E-03
   7108.58  4.7554043E-03
   7108.68  4.8146711E-03
   7108.78  4.8754719E-03
   7108.88  4.9378743E-03
   7108.98  5.0019502E-03
   7109.08  5.0677770E-03
   7109.18  5.1354382E-03
   7109.28  5.2050237E-03
   7109.38  5.2766314E-03
   7109.48  5.3503673E-03
   7109.58  5.4263475E-03
   7109.68  5.5046994E-03
   7109.78  5.5855632E-03
   7109.88  5.6690945E-03
   7109.98  5.7554666E-03
   7110.08  5.8448740E-03
   7110.18  5.9375362E-03
   7110.28  6.0337031E-03
   7110.38  6.1336609E-03
   7110.48  6.2377404E-03
   7110.58  6.3463270E-03
   7110.68  6.4598732E-03
   7110.78  6.5789143E-03
   7110.88  6.7040865E-03
   7110.98  6.8361491E-03
   7111.08  6.9760049E-03
   7111.18  7.1247165E-03
   7111.28  7.2835029E-03
   7111.38  7.4536918E-03
   7111.48  7.6365901E-03
   7111.58  7.8332286E-03
   7111.68  8.0439807E-03
   7111.78  8.2681691E-03
   7111.88  8.5039290E-03
   7111.98  8.7487515E-03
   7112.08  8.9996500E-03
   7112.18  9.2529503E-03
   7112.28  9.5040967E-03
   7112.38  9.7479144E-03
   7112.48  9.9801524E-03
   7112.58  1.0200053E-02
   7112.68  1.0411994E-02
   7112.78  1.0624523E-02
   7112.88  1.0847314E-02
   7112.98  1.1088121E-02
   7113.08  1.1351177E-02
   7113.18  1.1637359E-02
   7113.28  1.1945841E-02
   7113.38  1.2275639E-02
   7113.48  1.2627609E-02
   7113.58  1.3005127E-02
   7113.68  1.3413463E-02
   7113.78  1.3858669E-02
   7113.88  1.4346780E-02
   7113.98  1.4883583E-02
   7114.08  1.5474778E-02
   7114.18  1.6126237E-02
   7114.28  1.6844178E-02
   7114.38  1.7635182E-02
   7114.48  1.8506013E-02
   7114.58  1.9463250E-02
   7114.68  2.0512711E-02
   7114.78  2.1658784E-02
   7114.88  2.2903822E-02
   7114.98  2.4247958E-02
   7115.08  2.5689744E-02
   7115.18  2.7227868E-02
   7115.28  2.8863780E-02
   7115.38  3.0604437E-02
   7115.48  3.2464028E-02
   7115.58  3.4463817E-02
   7115.68  3.6630075E-02
   7115.78  3.8990778E-02
   7115.88  4.1572063E-02
   7115.98  4.4395086E-02
   7116.08  4.7473516E-02
   7116.18  5.0811603E-02
   7116.28  5.4402770E-02
   7116.38  5.8228928E-02
   7116.48  6.2260863E-02
   7116.58  6.6460016E-02
   7116.68  7.0781626E-02
   7116.78  7.5178645E-02
   7116.88  7.9605402E-02
   7116.98  8.4020002E-02
   7117.08  8.8362742E-02
   7117.18  9.2653084E-02
   7117.28  9.6789314E-02
   7117.38  1.0084720E-01
   7117.48  1.0465954E-01
   7117.58  1.0840403E-01
   7117.68  1.1187116E-01
   7117.78  1.1529127E-01
   7117.88  1.1849718E-01
   7117.98  1.2168046E-01
   7118.08  1.2476142E-01
   7118.18  1.2783993E-01
   7118.28  1.3088459E-01
   7118.48  1.3691698E-01
   7118.68  1.4271451E-01
   7118.88  1.4806770E-01
   7119.08  1.5282640E-01
   7119.28  1.5692829E-01
   7119.48  1.6039722E-01
   7119.68  1.6338661E-01
   7119.88  1.6620078E-01
   7120.08  1.6921474E-01
   7120.28  1.7275586E-01
   7120.48  1.7704895E-01
   7120.68  1.8222649E-01
   7120.88  1.8833944E-01
   7121.08  1.9533909E-01
   7121.28  2.0305737E-01
   7121.48  2.1121235E-01
   7121.68  2.1943159E-01
   7121.88  2.2728192E-01
   7122.08  2.3430970E-01
   7122.28  2.4008595E-01
   7122.48  2.4423925E-01
   7122.68  2.4648927E-01
   7122.88  2.4672060E-01
   7123.08  2.4507913E-01
   7123.28  2.4199908E-01
   7123.48  2.3810630E-01
   7123.68  2.3405128E-01
   7123.88  2.3036673E-01
   7124.08  2.2740197E-01
   7124.28  2.2533101E-01
   7124.48  2.2419978E-01
   7124.68  2.2397543E-01
   7124.88  2.2457754E-01
   7125.08  2.2589241E-01
   7125.28  2.2777963E-01
   7125.48  2.3007808E-01
   7125.68  2.3261371E-01
   7125.88  2.3520950E-01
   7126.08  2.3769743E-01
   7126.28  2.3993031E-01
   7126.48  2.4179008E-01
   7126.68  2.4319037E-01
   7126.88  2.4407327E-01
   7127.08  2.4440389E-01
   7127.28  2.4416615E-01
   7127.48  2.4336155E-01
   7127.68  2.4200944E-01
   7127.88  2.4014664E-01
   7128.08  2.3782466E-01
   7128.28  2.3510456E-01
   7128.48  2.3205115E-01
   7128.68  2.2872826E-01
   7128.88  2.2519627E-01
   7129.08  2.2151158E-01
   7129.28  2.1772752E-01
   7129.48  2.1389525E-01
   7129.68  2.1006420E-01
   7129.88  2.0628167E-01
   7130.08  2.0259188E-01
   7130.28  1.9903477E-01
   7130.48  1.9564507E-01
   7130.68  1.9245153E-01
   7130.88  1.8947662E-01
   7131.08  1.8673653E-01
   7131.28  1.8424140E-01
   7131.48  1.8199568E-01
   7131.68  1.7999864E-01
   7131.88  1.7824506E-01
   7132.08  1.7681537E-01
   7132.28  1.7572476E-01
   7132.48  1.7470854E-01
   7132.68  1.7376054E-01
   7132.88  1.7287418E-01
   7133.08  1.7221266E-01
   7133.28  1.7191338E-01
   7134.28  1.7127860E-01
   7135.28  1.7214661E-01
   7136.28  1.7343280E-01
   7137.28  1.7449453E-01
   7138.28  1.7485929E-01
   7139.28  1.7408852E-01
   7140.28  1.7191725E-01
   7141.28  1.6842871E-01
   7142.28  1.6402756E-01
   7143.28  1.5927004E-01
   7144.28  1.5469399E-01
   7145.28  1.5071620E-01
   7146.28  1.4760641E-01
   7147.28  1.4551176E-01
   7148.28  1.4449269E-01
   7149.28  1.4454642E-01
   7150.28  1.4561936E-01
   7151.28  1.4761789E-01
   7152.28  1.5042025E-01
   7153.28  1.5388664E-01
   7154.28  1.5786506E-01
   7155.28  1.6219419E-01
   7156.28  1.6670839E-01
   7157.28  1.7124934E-01
   7158.28  1.7568286E-01
   7159.28  1.7991279E-01
   7160.28  1.8388377E-01
   7161.28  1.8757212E-01
   7162.28  1.9097224E-01
   7163.28  1.9408622E-01
   7164.28  1.9691789E-01
   7165.28  1.9946774E-01
   7166.28  2.0172647E-01
   7167.28  2.0367048E-01
   7168.28  2.0526385E-01
   7169.28  2.0646786E-01
   7170.28  2.0725397E-01
   7171.28  2.0761447E-01
   7172.28  2.0756714E-01
   7173.28  2.0715306E-01
   7174.28  2.0642881E-01
   7175.28  2.0545573E-01
   7176.28  2.0428919E-01
   7177.28  2.0297169E-01
   7178.28  2.0153199E-01
   7179.28  1.9999022E-01
   7180.28  1.9836557E-01
   7181.28  1.9668271E-01
   7182.28  1.9497400E-01
   7183.28  1.9327744E-01
   7184.28  1.9163192E-01
   7185.28  1.9007197E-01
   7186.28  1.8862434E-01
   7187.28  1.8730751E-01
   7188.28  1.8613389E-01
   7189.28  1.8511298E-01
   7190.28  1.8425398E-01
   7191.28  1.8356598E-01
   7192.28  1.8305597E-01
   7193.28  1.8272560E-01
   7194.28  1.8256865E-01
   7195.28  1.8257076E-01
   7196.28  1.8271185E-01
   7197.28  1.8297023E-01
   7198.28  1.8332688E-01
   7199.28  1.8376857E-01
   7200.28  1.8428872E-01
   7201.28  1.8488640E-01
   7202.28  1.8556413E-01
   7203.28  1.8632546E-01
   7204.28  1.8717288E-01
   7205.28  1.8810592E-01
   7206.28  1.8911929E-01
   7207.28  1.9020121E-01
   7208.28  1.9133249E-01
   7209.28  1.9248693E-01
   7210.28  1.9363367E-01
   7211.28  1.9474112E-01
