    Energy    <xanes>    
   7072.00  5.6608809E-04
   7072.50  5.7304319E-04
   7073.00  5.8016282E-04
   7073.50  5.8745286E-04
   7074.00  5.9491950E-04
   7074.50  6.0256919E-04
   7075.00  6.1040874E-04
   7075.50  6.1844527E-04
   7076.00  6.2668627E-04
   7076.50  6.3513962E-04
   7077.00  6.4381360E-04
   7077.50  6.5271692E-04
   7078.00  6.6185876E-04
   7078.50  6.7124879E-04
   7079.00  6.8089720E-04
   7079.50  6.9081477E-04
   7080.00  7.0101285E-04
   7080.50  7.1150345E-04
   7081.00  7.2229928E-04
   7081.50  7.3341377E-04
   7082.00  7.4486116E-04
   7082.50  7.5665656E-04
   7083.00  7.6881597E-04
   7083.50  7.8135639E-04
   7084.00  7.9429591E-04
   7084.50  8.0765375E-04
   7085.00  8.2145039E-04
   7085.50  8.3570765E-04
   7086.00  8.5044882E-04
   7086.50  8.6569876E-04
   7087.00  8.8148408E-04
   7087.50  8.9783322E-04
   7088.00  9.1477670E-04
   7088.50  9.3234723E-04
   7089.00  9.5057998E-04
   7089.50  9.6951275E-04
   7090.00  9.8918626E-04
   7090.50  1.0096444E-03
   7091.00  1.0309347E-03
   7091.50  1.0531084E-03
   7092.00  1.0762210E-03
   7092.50  1.1003329E-03
   7093.00  1.1255097E-03
   7093.50  1.1518225E-03
   7094.00  1.1793494E-03
   7094.50  1.2081752E-03
   7095.00  1.2383931E-03
   7095.50  1.2701053E-03
   7096.00  1.3034241E-03
   7096.50  1.3384732E-03
   7097.00  1.3753895E-03
   7097.50  1.4143243E-03
   7098.00  1.4554460E-03
   7098.50  1.4989418E-03
   7099.00  1.5450209E-03
   7099.50  1.5939179E-03
   7100.00  1.6458963E-03
   7100.50  1.7012536E-03
   7101.00  1.7603267E-03
   7101.50  1.8234988E-03
   7102.00  1.8912078E-03
   7102.50  1.9639561E-03
   7103.00  2.0423235E-03
   7103.50  2.1269827E-03
   7104.00  2.2187191E-03
   7104.50  2.3184555E-03
   7105.00  2.4272846E-03
   7105.50  2.5465105E-03
   7106.00  2.6777046E-03
   7106.50  2.8227796E-03
   7107.00  2.9840922E-03
   7107.10  3.0185500E-03
   7107.20  3.0537993E-03
   7107.30  3.0898686E-03
   7107.40  3.1267873E-03
   7107.50  3.1645868E-03
   7107.60  3.2032996E-03
   7107.70  3.2429603E-03
   7107.80  3.2836054E-03
   7107.90  3.3252730E-03
   7108.00  3.3680038E-03
   7108.10  3.4118405E-03
   7108.20  3.4568284E-03
   7108.30  3.5030156E-03
   7108.40  3.5504529E-03
   7108.50  3.5991945E-03
   7108.60  3.6492978E-03
   7108.70  3.7008242E-03
   7108.80  3.7538392E-03
   7108.90  3.8084125E-03
   7109.00  3.8646193E-03
   7109.10  3.9225398E-03
   7109.20  3.9822608E-03
   7109.30  4.0438754E-03
   7109.40  4.1074847E-03
   7109.50  4.1731981E-03
   7109.60  4.2411349E-03
   7109.70  4.3114252E-03
   7109.80  4.3842119E-03
   7109.90  4.4596521E-03
   7110.00  4.5379200E-03
   7110.10  4.6192093E-03
   7110.20  4.7037370E-03
   7110.30  4.7917475E-03
   7110.40  4.8835181E-03
   7110.50  4.9793655E-03
   7110.60  5.0796544E-03
   7110.70  5.1848072E-03
   7110.80  5.2953163E-03
   7110.90  5.4117569E-03
   7111.00  5.5348004E-03
   7111.10  5.6652221E-03
   7111.20  5.8038946E-03
   7111.30  5.9517473E-03
   7111.40  6.1096602E-03
   7111.50  6.2782530E-03
   7111.60  6.4575504E-03
   7111.70  6.6466153E-03
   7111.80  6.8434293E-03
   7111.90  7.0454983E-03
   7112.00  7.2515596E-03
   7112.10  7.4613883E-03
   7112.20  7.6764272E-03
   7112.30  7.8993057E-03
   7112.40  8.1330390E-03
   7112.50  8.3805485E-03
   7112.60  8.6445371E-03
   7112.70  8.9275602E-03
   7112.80  9.2321550E-03
   7112.90  9.5609611E-03
   7113.00  9.9168126E-03
   7113.10  1.0302806E-02
   7113.20  1.0722361E-02
   7113.30  1.1179304E-02
   7113.40  1.1677991E-02
   7113.50  1.2223451E-02
   7113.60  1.2821531E-02
   7113.70  1.3479012E-02
   7113.80  1.4203699E-02
   7113.90  1.5004513E-02
   7114.00  1.5891577E-02
   7114.10  1.6876327E-02
   7114.20  1.7971630E-02
   7114.30  1.9191918E-02
   7114.40  2.0553244E-02
   7114.50  2.2073109E-02
   7114.60  2.3769786E-02
   7114.70  2.5660880E-02
   7114.80  2.7760969E-02
   7114.90  3.0078374E-02
   7115.00  3.2611511E-02
   7115.10  3.5345798E-02
   7115.20  3.8252662E-02
   7115.30  4.1292323E-02
   7115.40  4.4420931E-02
   7115.50  4.7600052E-02
   7115.60  5.0803685E-02
   7115.70  5.4017393E-02
   7115.80  5.7227711E-02
   7115.90  6.0406553E-02
   7116.00  6.3500562E-02
   7116.10  6.6434316E-02
   7116.20  6.9127606E-02
   7116.30  7.1516854E-02
   7116.40  7.3568962E-02
   7116.50  7.5284040E-02
   7116.60  7.6691246E-02
   7116.70  7.7841726E-02
   7116.80  7.8798858E-02
   7116.90  7.9625880E-02
   7117.00  8.0373847E-02
   7117.20  8.1739953E-02
   7117.40  8.2964108E-02
   7117.60  8.4076066E-02
   7117.80  8.5277572E-02
   7118.00  8.6893978E-02
   7118.20  8.9176534E-02
   7118.40  9.2192060E-02
   7118.60  9.5867742E-02
   7118.80  1.0009280E-01
   7119.00  1.0479967E-01
   7119.20  1.1001343E-01
   7119.40  1.1585145E-01
   7119.60  1.2246709E-01
   7119.80  1.2996879E-01
   7120.00  1.3833221E-01
   7120.20  1.4730273E-01
   7120.40  1.5632634E-01
   7120.60  1.6459050E-01
   7120.80  1.7121262E-01
   7121.00  1.7552178E-01
   7121.20  1.7731293E-01
   7121.40  1.7692959E-01
   7121.60  1.7510110E-01
   7121.80  1.7262828E-01
   7122.00  1.7012191E-01
   7122.20  1.6793111E-01
   7122.40  1.6623478E-01
   7122.60  1.6516142E-01
   7122.80  1.6482755E-01
   7123.00  1.6529376E-01
   7123.20  1.6650923E-01
   7123.40  1.6830200E-01
   7123.60  1.7042238E-01
   7123.80  1.7261234E-01
   7124.00  1.7466383E-01
   7124.20  1.7644153E-01
   7124.40  1.7786988E-01
   7124.60  1.7890285E-01
   7124.80  1.7949682E-01
   7125.00  1.7959798E-01
   7125.20  1.7914548E-01
   7125.40  1.7808553E-01
   7125.60  1.7638910E-01
   7125.80  1.7406608E-01
   7126.00  1.7117075E-01
   7126.20  1.6779678E-01
   7126.40  1.6406399E-01
   7126.60  1.6010139E-01
   7126.80  1.5603180E-01
   7127.00  1.5196102E-01
   7127.20  1.4797272E-01
   7127.40  1.4412805E-01
   7127.60  1.4046836E-01
   7127.80  1.3701927E-01
   7128.00  1.3379504E-01
   7128.20  1.3080219E-01
   7128.40  1.2804228E-01
   7128.60  1.2551363E-01
   7128.80  1.2321239E-01
   7129.00  1.2113298E-01
   7129.20  1.1926827E-01
   7129.40  1.1760968E-01
   7129.60  1.1614723E-01
   7129.80  1.1486970E-01
   7130.00  1.1376488E-01
   7130.20  1.1281993E-01
   7130.40  1.1202173E-01
   7130.60  1.1135735E-01
   7130.80  1.1081442E-01
   7131.00  1.1038139E-01
   7131.20  1.1004777E-01
   7131.40  1.0980409E-01
   7131.60  1.0964191E-01
   7131.80  1.0955366E-01
   7132.00  1.0953238E-01
   7133.00  1.1021014E-01
   7134.00  1.1164721E-01
   7135.00  1.1319061E-01
   7136.00  1.1434398E-01
   7137.00  1.1466199E-01
   7138.00  1.1377208E-01
   7139.00  1.1155159E-01
   7140.00  1.0823170E-01
   7141.00  1.0433728E-01
   7142.00  1.0047600E-01
   7143.00  9.7125182E-02
   7144.00  9.4557416E-02
   7145.00  9.2879019E-02
   7146.00  9.2090374E-02
   7147.00  9.2130846E-02
   7148.00  9.2912776E-02
   7149.00  9.4346740E-02
   7150.00  9.6350401E-02
   7151.00  9.8841741E-02
   7152.00  1.0173018E-01
   7153.00  1.0491563E-01
   7154.00  1.0829327E-01
   7155.00  1.1175807E-01
   7156.00  1.1520888E-01
   7157.00  1.1855473E-01
   7158.00  1.2172255E-01
   7159.00  1.2466184E-01
   7160.00  1.2734477E-01
   7161.00  1.2976243E-01
   7162.00  1.3191821E-01
   7163.00  1.3381803E-01
   7164.00  1.3545988E-01
   7165.00  1.3682711E-01
   7166.00  1.3789037E-01
   7167.00  1.3861987E-01
   7168.00  1.3900388E-01
   7169.00  1.3906380E-01
   7170.00  1.3885660E-01
   7171.00  1.3846237E-01
   7172.00  1.3796355E-01
   7173.00  1.3742565E-01
   7174.00  1.3688586E-01
   7175.00  1.3635024E-01
   7176.00  1.3579835E-01
   7177.00  1.3519299E-01
   7178.00  1.3449294E-01
   7179.00  1.3366605E-01
   7180.00  1.3269992E-01
   7181.00  1.3160739E-01
   7182.00  1.3042472E-01
   7183.00  1.2920322E-01
   7184.00  1.2799725E-01
   7185.00  1.2685310E-01
   7186.00  1.2580201E-01
   7187.00  1.2485883E-01
   7188.00  1.2402559E-01
   7189.00  1.2329780E-01
   7190.00  1.2267092E-01
   7191.00  1.2214431E-01
   7192.00  1.2172159E-01
   7193.00  1.2140801E-01
   7194.00  1.2120693E-01
   7195.00  1.2111740E-01
   7196.00  1.2113406E-01
   7197.00  1.2124903E-01
   7198.00  1.2145479E-01
   7199.00  1.2174646E-01
   7200.00  1.2212261E-01
   7201.00  1.2258473E-01
   7202.00  1.2313586E-01
   7203.00  1.2377913E-01
   7204.00  1.2451620E-01
   7205.00  1.2534546E-01
   7206.00  1.2625984E-01
   7207.00  1.2724482E-01
   7208.00  1.2827775E-01
   7209.00  1.2932927E-01
   7210.00  1.3036681E-01
   7211.00  1.3135941E-01
   7212.00  1.3228218E-01
