    Energy    <xanes>    
   5949.00  2.1861600E-03
   5949.50  2.2124172E-03
   5950.00  2.2392675E-03
   5950.50  2.2667310E-03
   5951.00  2.2948286E-03
   5951.50  2.3235824E-03
   5952.00  2.3530154E-03
   5952.50  2.3831515E-03
   5953.00  2.4140160E-03
   5953.50  2.4456354E-03
   5954.00  2.4780373E-03
   5954.50  2.5112508E-03
   5955.00  2.5453065E-03
   5955.50  2.5802363E-03
   5956.00  2.6160741E-03
   5956.50  2.6528552E-03
   5957.00  2.6906170E-03
   5957.50  2.7293987E-03
   5958.00  2.7692419E-03
   5958.50  2.8101901E-03
   5959.00  2.8522894E-03
   5959.50  2.8955886E-03
   5960.00  2.9401391E-03
   5960.50  2.9859952E-03
   5961.00  3.0332147E-03
   5961.50  3.0818585E-03
   5962.00  3.1319914E-03
   5962.50  3.1836821E-03
   5963.00  3.2370035E-03
   5963.50  3.2920331E-03
   5964.00  3.3488536E-03
   5964.50  3.4075529E-03
   5965.00  3.4682249E-03
   5965.50  3.5309695E-03
   5966.00  3.5958939E-03
   5966.50  3.6631125E-03
   5967.00  3.7327481E-03
   5967.50  3.8049321E-03
   5968.00  3.8798058E-03
   5968.50  3.9575211E-03
   5969.00  4.0382418E-03
   5969.50  4.1221442E-03
   5970.00  4.2094188E-03
   5970.50  4.3002720E-03
   5971.00  4.3949270E-03
   5971.50  4.4936264E-03
   5972.00  4.5966340E-03
   5972.50  4.7042372E-03
   5973.00  4.8167496E-03
   5973.50  4.9345148E-03
   5974.00  5.0579093E-03
   5974.50  5.1873471E-03
   5975.00  5.3232846E-03
   5975.50  5.4662263E-03
   5976.00  5.6167314E-03
   5976.50  5.7754222E-03
   5977.00  5.9429927E-03
   5977.50  6.1202210E-03
   5978.00  6.3079818E-03
   5978.50  6.5072642E-03
   5979.00  6.7191909E-03
   5979.50  6.9450444E-03
   5980.00  7.1862984E-03
   5980.50  7.4446585E-03
   5981.00  7.7221143E-03
   5981.50  8.0210092E-03
   5982.00  8.3441327E-03
   5982.50  8.6948494E-03
   5983.00  9.0772804E-03
   5983.50  9.4965712E-03
   5984.00  9.9592989E-03
   5984.10  1.0057772E-02
   5984.20  1.0158401E-02
   5984.30  1.0261273E-02
   5984.40  1.0366481E-02
   5984.50  1.0474124E-02
   5984.60  1.0584309E-02
   5984.70  1.0697150E-02
   5984.80  1.0812771E-02
   5984.90  1.0931303E-02
   5985.00  1.1052891E-02
   5985.10  1.1177690E-02
   5985.20  1.1305869E-02
   5985.30  1.1437612E-02
   5985.40  1.1573121E-02
   5985.50  1.1712615E-02
   5985.60  1.1856339E-02
   5985.70  1.2004561E-02
   5985.80  1.2157577E-02
   5985.90  1.2315718E-02
   5986.00  1.2479354E-02
   5986.10  1.2648900E-02
   5986.20  1.2824823E-02
   5986.30  1.3007652E-02
   5986.40  1.3197990E-02
   5986.50  1.3396526E-02
   5986.60  1.3604055E-02
   5986.70  1.3821496E-02
   5986.80  1.4049921E-02
   5986.90  1.4290586E-02
   5987.00  1.4544975E-02
   5987.10  1.4814855E-02
   5987.20  1.5102342E-02
   5987.30  1.5409994E-02
   5987.40  1.5740928E-02
   5987.50  1.6098972E-02
   5987.60  1.6488872E-02
   5987.70  1.6916557E-02
   5987.80  1.7389501E-02
   5987.90  1.7917188E-02
   5988.00  1.8511722E-02
   5988.10  1.9188592E-02
   5988.20  1.9967546E-02
   5988.30  2.0873429E-02
   5988.40  2.1936503E-02
   5988.50  2.3191155E-02
   5988.60  2.4670847E-02
   5988.70  2.6396245E-02
   5988.80  2.8355009E-02
   5988.90  3.0479965E-02
   5989.00  3.2645793E-02
   5989.10  3.4701971E-02
   5989.20  3.6522933E-02
   5989.30  3.8032101E-02
   5989.40  3.9157754E-02
   5989.50  3.9770422E-02
   5989.60  3.9717725E-02
   5989.70  3.8974237E-02
   5989.80  3.7734143E-02
   5989.90  3.6318011E-02
   5990.00  3.5007482E-02
   5990.10  3.3964694E-02
   5990.20  3.3246234E-02
   5990.30  3.2847741E-02
   5990.40  3.2739170E-02
   5990.50  3.2883400E-02
   5990.60  3.3243183E-02
   5990.70  3.3782315E-02
   5990.80  3.4465395E-02
   5990.90  3.5259162E-02
   5991.00  3.6136860E-02
   5991.10  3.7084552E-02
   5991.20  3.8105930E-02
   5991.30  3.9222237E-02
   5991.40  4.0467178E-02
   5991.50  4.1880121E-02
   5991.60  4.3501081E-02
   5991.70  4.5368714E-02
   5991.80  4.7520340E-02
   5991.90  4.9992317E-02
   5992.00  5.2819308E-02
   5992.10  5.6031352E-02
   5992.20  5.9647970E-02
   5992.30  6.3669126E-02
   5992.40  6.8064194E-02
   5992.50  7.2762743E-02
   5992.60  7.7654091E-02
   5992.70  8.2603613E-02
   5992.80  8.7488363E-02
   5992.90  9.2242310E-02
   5993.00  9.6890807E-02
   5993.10  1.0155667E-01
   5993.20  1.0643672E-01
   5993.30  1.1176302E-01
   5993.40  1.1776505E-01
   5993.50  1.2464019E-01
   5993.60  1.3253067E-01
   5993.70  1.4150078E-01
   5993.80  1.5151007E-01
   5993.90  1.6238454E-01
   5994.00  1.7379612E-01
   5994.20  1.9622802E-01
   5994.40  2.1440088E-01
   5994.60  2.2550306E-01
   5994.80  2.3000865E-01
   5995.00  2.3051811E-01
   5995.20  2.2987095E-01
   5995.40  2.3002006E-01
   5995.60  2.3177103E-01
   5995.80  2.3518197E-01
   5996.00  2.4010858E-01
   5996.20  2.4655712E-01
   5996.40  2.5482042E-01
   5996.60  2.6543289E-01
   5996.80  2.7899540E-01
   5997.00  2.9594486E-01
   5997.20  3.1630811E-01
   5997.40  3.3947541E-01
   5997.60  3.6411993E-01
   5997.80  3.8844485E-01
   5998.00  4.1081574E-01
   5998.20  4.3053001E-01
   5998.40  4.4821059E-01
   5998.60  4.6547736E-01
   5998.80  4.8413605E-01
   5999.00  5.0547614E-01
   5999.20  5.3002823E-01
   5999.40  5.5772106E-01
   5999.60  5.8820817E-01
   5999.80  6.2114924E-01
   6000.00  6.5629408E-01
   6000.20  6.9332687E-01
   6000.40  7.3158316E-01
   6000.60  7.6984819E-01
   6000.80  8.0638044E-01
   6001.00  8.3914300E-01
   6001.20  8.6613106E-01
   6001.40  8.8570920E-01
   6001.60  8.9691211E-01
   6001.80  8.9964627E-01
   6002.00  8.9471248E-01
   6002.20  8.8362188E-01
   6002.40  8.6827328E-01
   6002.60  8.5061403E-01
   6002.80  8.3238281E-01
   6003.00  8.1496746E-01
   6003.20  7.9935858E-01
   6003.40  7.8616272E-01
   6003.60  7.7564665E-01
   6003.80  7.6779677E-01
   6004.00  7.6238564E-01
   6004.20  7.5903843E-01
   6004.40  7.5729252E-01
   6004.60  7.5664535E-01
   6004.80  7.5658964E-01
   6005.00  7.5663966E-01
   6005.20  7.5635338E-01
   6005.40  7.5535410E-01
   6005.60  7.5335166E-01
   6005.80  7.5016031E-01
   6006.00  7.4570851E-01
   6006.20  7.4003724E-01
   6006.40  7.3328543E-01
   6006.60  7.2566517E-01
   6006.80  7.1743145E-01
   6007.00  7.0885236E-01
   6007.20  7.0018450E-01
   6007.40  6.9165640E-01
   6007.60  6.8345986E-01
   6007.80  6.7574788E-01
   6008.00  6.6863688E-01
   6008.20  6.6221105E-01
   6008.40  6.5652743E-01
   6008.60  6.5162080E-01
   6008.80  6.4750800E-01
   6009.00  6.4419164E-01
   6010.00  6.3896563E-01
   6011.00  6.4915027E-01
   6012.00  6.6648707E-01
   6013.00  6.8045728E-01
   6014.00  6.8420706E-01
   6015.00  6.7724219E-01
   6016.00  6.6290601E-01
   6017.00  6.4543903E-01
   6018.00  6.2788926E-01
   6019.00  6.1110799E-01
   6020.00  5.9442564E-01
   6021.00  5.7703366E-01
   6022.00  5.5871054E-01
   6023.00  5.3978607E-01
   6024.00  5.2093146E-01
   6025.00  5.0297794E-01
   6026.00  4.8670584E-01
   6027.00  4.7269104E-01
   6028.00  4.6132710E-01
   6029.00  4.5295847E-01
   6030.00  4.4793123E-01
   6031.00  4.4647963E-01
   6032.00  4.4856061E-01
   6033.00  4.5377581E-01
   6034.00  4.6142098E-01
   6035.00  4.7063041E-01
   6036.00  4.8056544E-01
   6037.00  4.9059127E-01
   6038.00  5.0038313E-01
   6039.00  5.0991888E-01
   6040.00  5.1937144E-01
   6041.00  5.2897157E-01
   6042.00  5.3890720E-01
   6043.00  5.4927519E-01
   6044.00  5.6006951E-01
   6045.00  5.7118993E-01
   6046.00  5.8246081E-01
   6047.00  5.9364923E-01
   6048.00  6.0447476E-01
   6049.00  6.1461781E-01
   6050.00  6.2374419E-01
   6051.00  6.3155296E-01
   6052.00  6.3783059E-01
   6053.00  6.4248545E-01
   6054.00  6.4555058E-01
   6055.00  6.4715988E-01
   6056.00  6.4751219E-01
   6057.00  6.4684192E-01
   6058.00  6.4540991E-01
   6059.00  6.4351229E-01
   6060.00  6.4149118E-01
   6061.00  6.3972888E-01
   6062.00  6.3861600E-01
   6063.00  6.3849737E-01
   6064.00  6.3961177E-01
   6065.00  6.4204535E-01
   6066.00  6.4571068E-01
   6067.00  6.5035147E-01
   6068.00  6.5556582E-01
   6069.00  6.6084299E-01
   6070.00  6.6561532E-01
   6071.00  6.6932797E-01
   6072.00  6.7152018E-01
   6073.00  6.7189917E-01
   6074.00  6.7038355E-01
   6075.00  6.6710233E-01
   6076.00  6.6235309E-01
   6077.00  6.5653666E-01
   6078.00  6.5008862E-01
   6079.00  6.4342143E-01
   6080.00  6.3688268E-01
   6081.00  6.3073103E-01
   6082.00  6.2512949E-01
   6083.00  6.2015415E-01
   6084.00  6.1581329E-01
   6085.00  6.1207039E-01
   6086.00  6.0886512E-01
   6087.00  6.0612919E-01
   6088.00  6.0379610E-01
   6089.00  6.0180576E-01
