    Energy    <xanes>    
  30451.00  1.0876718E-03
  30451.50  1.1038908E-03
  30452.00  1.1205548E-03
  30452.50  1.1376816E-03
  30453.00  1.1552900E-03
  30453.50  1.1733999E-03
  30454.00  1.1920320E-03
  30454.50  1.2112085E-03
  30455.00  1.2309526E-03
  30455.50  1.2512888E-03
  30456.00  1.2722430E-03
  30456.50  1.2938427E-03
  30457.00  1.3161169E-03
  30457.50  1.3390964E-03
  30458.00  1.3628136E-03
  30458.50  1.3873033E-03
  30459.00  1.4126019E-03
  30459.50  1.4387485E-03
  30460.00  1.4657845E-03
  30460.50  1.4937540E-03
  30461.00  1.5227038E-03
  30461.50  1.5526840E-03
  30462.00  1.5837479E-03
  30462.50  1.6159525E-03
  30463.00  1.6493586E-03
  30463.50  1.6840314E-03
  30464.00  1.7200407E-03
  30464.50  1.7574612E-03
  30465.00  1.7963731E-03
  30465.50  1.8368628E-03
  30466.00  1.8790229E-03
  30466.50  1.9229533E-03
  30467.00  1.9687617E-03
  30467.50  2.0165642E-03
  30468.00  2.0664865E-03
  30468.50  2.1186645E-03
  30469.00  2.1732454E-03
  30469.50  2.2303892E-03
  30470.00  2.2902696E-03
  30470.50  2.3530756E-03
  30471.00  2.4190133E-03
  30471.50  2.4883077E-03
  30472.00  2.5612049E-03
  30472.50  2.6379744E-03
  30473.00  2.7189120E-03
  30473.50  2.8043428E-03
  30474.00  2.8946248E-03
  30474.50  2.9901532E-03
  30475.00  3.0913649E-03
  30475.50  3.1987440E-03
  30476.00  3.3128280E-03
  30476.50  3.4342149E-03
  30477.00  3.5635720E-03
  30477.50  3.7016449E-03
  30478.00  3.8492693E-03
  30478.50  4.0073840E-03
  30479.00  4.1770465E-03
  30479.50  4.3594504E-03
  30480.00  4.5559474E-03
  30480.50  4.7680715E-03
  30481.00  4.9975684E-03
  30481.50  5.2464297E-03
  30482.00  5.5169336E-03
  30482.50  5.8116913E-03
  30483.00  6.1337025E-03
  30483.50  6.4864185E-03
  30484.00  6.8738142E-03
  30484.50  7.3004691E-03
  30485.00  7.7716544E-03
  30485.50  8.2934223E-03
  30486.00  8.8726898E-03
  30486.10  8.9961168E-03
  30486.20  9.1222219E-03
  30486.30  9.2510740E-03
  30486.40  9.3827434E-03
  30486.50  9.5173020E-03
  30486.60  9.6548233E-03
  30486.70  9.7953821E-03
  30486.80  9.9390548E-03
  30486.90  1.0085919E-02
  30487.00  1.0236054E-02
  30487.10  1.0389540E-02
  30487.20  1.0546458E-02
  30487.30  1.0706891E-02
  30487.40  1.0870923E-02
  30487.50  1.1038639E-02
  30487.60  1.1210124E-02
  30487.70  1.1385464E-02
  30487.80  1.1564747E-02
  30487.90  1.1748059E-02
  30488.00  1.1935489E-02
  30488.10  1.2127123E-02
  30488.20  1.2323051E-02
  30488.30  1.2523359E-02
  30488.40  1.2728135E-02
  30488.50  1.2937465E-02
  30488.60  1.3151435E-02
  30488.70  1.3370131E-02
  30488.80  1.3593635E-02
  30488.90  1.3822031E-02
  30489.00  1.4055398E-02
  30489.10  1.4293817E-02
  30489.20  1.4537363E-02
  30489.30  1.4786113E-02
  30489.40  1.5040138E-02
  30489.50  1.5299509E-02
  30489.60  1.5564294E-02
  30489.70  1.5834558E-02
  30489.80  1.6110363E-02
  30489.90  1.6391769E-02
  30490.00  1.6678832E-02
  30490.10  1.6971608E-02
  30490.20  1.7270146E-02
  30490.30  1.7574496E-02
  30490.40  1.7884702E-02
  30490.50  1.8200807E-02
  30490.60  1.8522851E-02
  30490.70  1.8850870E-02
  30490.80  1.9184898E-02
  30490.90  1.9524966E-02
  30491.00  1.9871101E-02
  30491.10  2.0223369E-02
  30491.20  2.0581818E-02
  30491.30  2.0946449E-02
  30491.40  2.1317253E-02
  30491.50  2.1694214E-02
  30491.60  2.2077309E-02
  30491.70  2.2466503E-02
  30491.80  2.2861752E-02
  30491.90  2.3263000E-02
  30492.00  2.3670174E-02
  30492.10  2.4083188E-02
  30492.20  2.4501937E-02
  30492.30  2.4926297E-02
  30492.40  2.5356123E-02
  30492.50  2.5791243E-02
  30492.60  2.6231460E-02
  30492.70  2.6676551E-02
  30492.80  2.7126259E-02
  30492.90  2.7580297E-02
  30493.00  2.8038340E-02
  30493.10  2.8500032E-02
  30493.20  2.8964975E-02
  30493.30  2.9432734E-02
  30493.40  2.9902836E-02
  30493.50  3.0374767E-02
  30493.60  3.0847972E-02
  30493.70  3.1321861E-02
  30493.80  3.1795801E-02
  30493.90  3.2269127E-02
  30494.00  3.2741137E-02
  30494.10  3.3211098E-02
  30494.20  3.3678248E-02
  30494.30  3.4141799E-02
  30494.40  3.4600942E-02
  30494.50  3.5054850E-02
  30494.60  3.5502684E-02
  30494.70  3.5943596E-02
  30494.80  3.6376735E-02
  30494.90  3.6801252E-02
  30495.00  3.7216305E-02
  30495.10  3.7621063E-02
  30495.20  3.8014714E-02
  30495.30  3.8396466E-02
  30495.40  3.8765557E-02
  30495.50  3.9121252E-02
  30495.60  3.9462856E-02
  30495.70  3.9789710E-02
  30495.80  4.0101200E-02
  30495.90  4.0396760E-02
  30496.00  4.0675872E-02
  30496.20  4.1182945E-02
  30496.40  4.1619372E-02
  30496.60  4.1983034E-02
  30496.80  4.2272782E-02
  30497.00  4.2488438E-02
  30497.20  4.2630784E-02
  30497.40  4.2701516E-02
  30497.60  4.2703176E-02
  30497.80  4.2639062E-02
  30498.00  4.2513121E-02
  30498.20  4.2329821E-02
  30498.40  4.2094025E-02
  30498.60  4.1810857E-02
  30498.80  4.1485569E-02
  30499.00  4.1123426E-02
  30499.20  4.0729599E-02
  30499.40  4.0309073E-02
  30499.60  3.9866580E-02
  30499.80  3.9406542E-02
  30500.00  3.8933038E-02
  30500.20  3.8449785E-02
  30500.40  3.7960132E-02
  30500.60  3.7467067E-02
  30500.80  3.6973233E-02
  30501.00  3.6480951E-02
  30501.20  3.5992246E-02
  30501.40  3.5508873E-02
  30501.60  3.5032351E-02
  30501.80  3.4563989E-02
  30502.00  3.4104910E-02
  30502.20  3.3656080E-02
  30502.40  3.3218323E-02
  30502.60  3.2792343E-02
  30502.80  3.2378736E-02
  30503.00  3.1978003E-02
  30503.20  3.1590557E-02
  30503.40  3.1216734E-02
  30503.60  3.0856789E-02
  30503.80  3.0510910E-02
  30504.00  3.0179213E-02
  30504.20  2.9861744E-02
  30504.40  2.9558484E-02
  30504.60  2.9269347E-02
  30504.80  2.8994183E-02
  30505.00  2.8732780E-02
  30505.20  2.8484863E-02
  30505.40  2.8250104E-02
  30505.60  2.8028117E-02
  30505.80  2.7818469E-02
  30506.00  2.7620679E-02
  30506.20  2.7434229E-02
  30506.40  2.7258560E-02
  30506.60  2.7093085E-02
  30506.80  2.6937193E-02
  30507.00  2.6790250E-02
  30507.20  2.6651608E-02
  30507.40  2.6520609E-02
  30507.60  2.6396591E-02
  30507.80  2.6278892E-02
  30508.00  2.6166855E-02
  30508.20  2.6059832E-02
  30508.40  2.5957191E-02
  30508.60  2.5858320E-02
  30508.80  2.5762628E-02
  30509.00  2.5669554E-02
  30509.20  2.5578568E-02
  30509.40  2.5489175E-02
  30509.60  2.5400918E-02
  30509.80  2.5313382E-02
  30510.00  2.5226196E-02
  30510.20  2.5139033E-02
  30510.40  2.5051613E-02
  30510.60  2.4963702E-02
  30510.80  2.4875113E-02
  30511.00  2.4785706E-02
  30512.00  2.4324432E-02
  30513.00  2.3844017E-02
  30514.00  2.3362621E-02
  30515.00  2.2904737E-02
  30516.00  2.2493774E-02
  30517.00  2.2148173E-02
  30518.00  2.1879819E-02
  30519.00  2.1693618E-02
  30520.00  2.1587918E-02
  30521.00  2.1555853E-02
  30522.00  2.1587473E-02
  30523.00  2.1672103E-02
  30524.00  2.1800209E-02
  30525.00  2.1964328E-02
  30526.00  2.2159058E-02
  30527.00  2.2380475E-02
  30528.00  2.2625399E-02
  30529.00  2.2890775E-02
  30530.00  2.3173256E-02
  30531.00  2.3468986E-02
  30532.00  2.3773575E-02
  30533.00  2.4082243E-02
  30534.00  2.4390135E-02
  30535.00  2.4692742E-02
  30536.00  2.4986333E-02
  30537.00  2.5268313E-02
  30538.00  2.5537394E-02
  30539.00  2.5793535E-02
  30540.00  2.6037647E-02
  30541.00  2.6271107E-02
  30542.00  2.6495204E-02
  30543.00  2.6710624E-02
  30544.00  2.6917086E-02
  30545.00  2.7113181E-02
  30546.00  2.7296415E-02
  30547.00  2.7463435E-02
  30548.00  2.7610406E-02
  30549.00  2.7733471E-02
  30550.00  2.7829263E-02
  30551.00  2.7895359E-02
  30552.00  2.7930619E-02
  30553.00  2.7935337E-02
  30554.00  2.7911210E-02
  30555.00  2.7861136E-02
  30556.00  2.7788894E-02
  30557.00  2.7698771E-02
  30558.00  2.7595181E-02
  30559.00  2.7482312E-02
  30560.00  2.7363853E-02
  30561.00  2.7242802E-02
  30562.00  2.7121373E-02
  30563.00  2.7000992E-02
  30564.00  2.6882367E-02
  30565.00  2.6765614E-02
  30566.00  2.6650424E-02
  30567.00  2.6536260E-02
  30568.00  2.6422554E-02
  30569.00  2.6308907E-02
  30570.00  2.6195248E-02
  30571.00  2.6081954E-02
  30572.00  2.5969888E-02
  30573.00  2.5860375E-02
  30574.00  2.5755085E-02
  30575.00  2.5655857E-02
  30576.00  2.5564492E-02
  30577.00  2.5482524E-02
  30578.00  2.5411035E-02
  30579.00  2.5350526E-02
  30580.00  2.5300862E-02
  30581.00  2.5261310E-02
  30582.00  2.5230637E-02
  30583.00  2.5207267E-02
  30584.00  2.5189462E-02
  30585.00  2.5175501E-02
  30586.00  2.5163845E-02
  30587.00  2.5153247E-02
  30588.00  2.5142818E-02
  30589.00  2.5132034E-02
  30590.00  2.5120692E-02
  30591.00  2.5108837E-02
