    Energy    <xanes>    
   7072.00  1.5684571E-03
   7072.50  1.5870101E-03
   7073.00  1.6059731E-03
   7073.50  1.6253596E-03
   7074.00  1.6451837E-03
   7074.50  1.6654602E-03
   7075.00  1.6862045E-03
   7075.50  1.7074326E-03
   7076.00  1.7291615E-03
   7076.50  1.7514087E-03
   7077.00  1.7741928E-03
   7077.50  1.7975330E-03
   7078.00  1.8214497E-03
   7078.50  1.8459641E-03
   7079.00  1.8710986E-03
   7079.50  1.8968765E-03
   7080.00  1.9233224E-03
   7080.50  1.9504623E-03
   7081.00  1.9783233E-03
   7081.50  2.0069340E-03
   7082.00  2.0363247E-03
   7082.50  2.0665270E-03
   7083.00  2.0975745E-03
   7083.50  2.1295024E-03
   7084.00  2.1623482E-03
   7084.50  2.1961513E-03
   7085.00  2.2309534E-03
   7085.50  2.2667986E-03
   7086.00  2.3037336E-03
   7086.50  2.3418080E-03
   7087.00  2.3810745E-03
   7087.50  2.4215887E-03
   7088.00  2.4634101E-03
   7088.50  2.5066017E-03
   7089.00  2.5512306E-03
   7089.50  2.5973685E-03
   7090.00  2.6450918E-03
   7090.50  2.6944820E-03
   7091.00  2.7456263E-03
   7091.50  2.7986179E-03
   7092.00  2.8535569E-03
   7092.50  2.9105504E-03
   7093.00  2.9697137E-03
   7093.50  3.0311705E-03
   7094.00  3.0950542E-03
   7094.50  3.1615086E-03
   7095.00  3.2306889E-03
   7095.50  3.3027630E-03
   7096.00  3.3779126E-03
   7096.50  3.4563350E-03
   7097.00  3.5382445E-03
   7097.50  3.6238742E-03
   7098.00  3.7134786E-03
   7098.50  3.8073354E-03
   7099.00  3.9057489E-03
   7099.50  4.0090529E-03
   7100.00  4.1176142E-03
   7100.50  4.2318372E-03
   7101.00  4.3521688E-03
   7101.50  4.4791040E-03
   7102.00  4.6131926E-03
   7102.50  4.7550472E-03
   7103.00  4.9053529E-03
   7103.50  5.0648779E-03
   7104.00  5.2344874E-03
   7104.50  5.4151598E-03
   7105.00  5.6080063E-03
   7105.50  5.8142961E-03
   7106.00  6.0354870E-03
   7106.50  6.2732658E-03
   7107.00  6.5296005E-03
   7107.10  6.5832912E-03
   7107.20  6.6378361E-03
   7107.30  6.6932564E-03
   7107.40  6.7495743E-03
   7107.50  6.8068126E-03
   7107.60  6.8649952E-03
   7107.70  6.9241470E-03
   7107.80  6.9842936E-03
   7107.90  7.0454621E-03
   7108.00  7.1076806E-03
   7108.10  7.1709783E-03
   7108.20  7.2353860E-03
   7108.30  7.3009360E-03
   7108.40  7.3676620E-03
   7108.50  7.4355995E-03
   7108.60  7.5047862E-03
   7108.70  7.5752614E-03
   7108.80  7.6470673E-03
   7108.90  7.7202484E-03
   7109.00  7.7948520E-03
   7109.10  7.8709289E-03
   7109.20  7.9485337E-03
   7109.30  8.0277249E-03
   7109.40  8.1085663E-03
   7109.50  8.1911270E-03
   7109.60  8.2754829E-03
   7109.70  8.3617177E-03
   7109.80  8.4499242E-03
   7109.90  8.5402063E-03
   7110.00  8.6326813E-03
   7110.10  8.7274827E-03
   7110.20  8.8247636E-03
   7110.30  8.9247022E-03
   7110.40  9.0275067E-03
   7110.50  9.1334238E-03
   7110.60  9.2427479E-03
   7110.70  9.3558332E-03
   7110.80  9.4731084E-03
   7110.90  9.5950929E-03
   7111.00  9.7224139E-03
   7111.10  9.8558170E-03
   7111.20  9.9961591E-03
   7111.30  1.0144357E-02
   7111.40  1.0301245E-02
   7111.50  1.0467264E-02
   7111.60  1.0641912E-02
   7111.70  1.0822972E-02
   7111.80  1.1005860E-02
   7111.90  1.1183909E-02
   7112.00  1.1350657E-02
   7112.10  1.1503593E-02
   7112.20  1.1644047E-02
   7112.30  1.1777173E-02
   7112.40  1.1909320E-02
   7112.50  1.2045755E-02
   7112.60  1.2189849E-02
   7112.70  1.2343314E-02
   7112.80  1.2506784E-02
   7112.90  1.2680354E-02
   7113.00  1.2863953E-02
   7113.10  1.3057548E-02
   7113.20  1.3261231E-02
   7113.30  1.3475224E-02
   7113.40  1.3699845E-02
   7113.50  1.3935480E-02
   7113.60  1.4182552E-02
   7113.70  1.4441519E-02
   7113.80  1.4712865E-02
   7113.90  1.4997111E-02
   7114.00  1.5294820E-02
   7114.10  1.5606605E-02
   7114.20  1.5933134E-02
   7114.30  1.6275140E-02
   7114.40  1.6633427E-02
   7114.50  1.7008875E-02
   7114.60  1.7402448E-02
   7114.70  1.7815197E-02
   7114.80  1.8248270E-02
   7114.90  1.8702922E-02
   7115.00  1.9180525E-02
   7115.10  1.9682588E-02
   7115.20  2.0210769E-02
   7115.30  2.0766893E-02
   7115.40  2.1352976E-02
   7115.50  2.1971242E-02
   7115.60  2.2624159E-02
   7115.70  2.3314459E-02
   7115.80  2.4045183E-02
   7115.90  2.4819716E-02
   7116.00  2.5641840E-02
   7116.10  2.6515788E-02
   7116.20  2.7446319E-02
   7116.30  2.8438788E-02
   7116.40  2.9499244E-02
   7116.50  3.0634523E-02
   7116.60  3.1852359E-02
   7116.70  3.3161495E-02
   7116.80  3.4571786E-02
   7116.90  3.6094291E-02
   7117.00  3.7741352E-02
   7117.20  4.1465344E-02
   7117.40  4.5871432E-02
   7117.60  5.1115381E-02
   7117.80  5.7383128E-02
   7118.00  6.4878760E-02
   7118.20  7.3786478E-02
   7118.40  8.4196408E-02
   7118.60  9.6002744E-02
   7118.80  1.0883994E-01
   7119.00  1.2217088E-01
   7119.20  1.3554142E-01
   7119.40  1.4879277E-01
   7119.60  1.6201923E-01
   7119.80  1.7532976E-01
   7120.00  1.8861990E-01
   7120.20  2.0150946E-01
   7120.40  2.1348465E-01
   7120.60  2.2412257E-01
   7120.80  2.3323479E-01
   7121.00  2.4086202E-01
   7121.20  2.4717319E-01
   7121.40  2.5241408E-01
   7121.60  2.5696171E-01
   7121.80  2.6135756E-01
   7122.00  2.6621170E-01
   7122.20  2.7204708E-01
   7122.40  2.7920546E-01
   7122.60  2.8784315E-01
   7122.80  2.9798015E-01
   7123.00  3.0957650E-01
   7123.20  3.2261915E-01
   7123.40  3.3718474E-01
   7123.60  3.5344264E-01
   7123.80  3.7159868E-01
   7124.00  3.9181544E-01
   7124.20  4.1414391E-01
   7124.40  4.3847507E-01
   7124.60  4.6450223E-01
   7124.80  4.9169203E-01
   7125.00  5.1927888E-01
   7125.20  5.4630433E-01
   7125.40  5.7170868E-01
   7125.60  5.9445589E-01
   7125.80  6.1365409E-01
   7126.00  6.2863847E-01
   7126.20  6.3900790E-01
   7126.40  6.4462848E-01
   7126.60  6.4562039E-01
   7126.80  6.4233324E-01
   7127.00  6.3530641E-01
   7127.20  6.2521263E-01
   7127.40  6.1279123E-01
   7127.60  5.9878253E-01
   7127.80  5.8387373E-01
   7128.00  5.6866197E-01
   7128.20  5.5363453E-01
   7128.40  5.3916379E-01
   7128.60  5.2551301E-01
   7128.80  5.1284924E-01
   7129.00  5.0126018E-01
   7129.20  4.9077215E-01
   7129.40  4.8136721E-01
   7129.60  4.7299801E-01
   7129.80  4.6559966E-01
   7130.00  4.5909872E-01
   7130.20  4.5341946E-01
   7130.40  4.4848785E-01
   7130.60  4.4423401E-01
   7130.80  4.4059322E-01
   7131.00  4.3750608E-01
   7131.20  4.3491800E-01
   7131.40  4.3277836E-01
   7131.60  4.3103953E-01
   7131.80  4.2965604E-01
   7132.00  4.2858412E-01
   7133.00  4.2648273E-01
   7134.00  4.2670715E-01
   7135.00  4.2621827E-01
   7136.00  4.2353210E-01
   7137.00  4.1860566E-01
   7138.00  4.1192431E-01
   7139.00  4.0374120E-01
   7140.00  3.9419920E-01
   7141.00  3.8367434E-01
   7142.00  3.7276824E-01
   7143.00  3.6202002E-01
   7144.00  3.5162968E-01
   7145.00  3.4141201E-01
   7146.00  3.3100882E-01
   7147.00  3.2022289E-01
   7148.00  3.0926300E-01
   7149.00  2.9874955E-01
   7150.00  2.8951084E-01
   7151.00  2.8233329E-01
   7152.00  2.7779724E-01
   7153.00  2.7621896E-01
   7154.00  2.7765698E-01
   7155.00  2.8194360E-01
   7156.00  2.8872426E-01
   7157.00  2.9750081E-01
   7158.00  3.0768038E-01
   7159.00  3.1863540E-01
   7160.00  3.2977321E-01
   7161.00  3.4059627E-01
   7162.00  3.5072936E-01
   7163.00  3.5991271E-01
   7164.00  3.6798540E-01
   7165.00  3.7488044E-01
   7166.00  3.8062774E-01
   7167.00  3.8534587E-01
   7168.00  3.8921162E-01
   7169.00  3.9241531E-01
   7170.00  3.9512077E-01
   7171.00  3.9744564E-01
   7172.00  3.9946421E-01
   7173.00  4.0122338E-01
   7174.00  4.0275878E-01
   7175.00  4.0410399E-01
   7176.00  4.0529295E-01
   7177.00  4.0635923E-01
   7178.00  4.0733416E-01
   7179.00  4.0824413E-01
   7180.00  4.0910694E-01
   7181.00  4.0992883E-01
   7182.00  4.1070338E-01
   7183.00  4.1141314E-01
   7184.00  4.1203353E-01
   7185.00  4.1253715E-01
   7186.00  4.1289678E-01
   7187.00  4.1308582E-01
   7188.00  4.1307611E-01
   7189.00  4.1283407E-01
   7190.00  4.1231757E-01
   7191.00  4.1147664E-01
   7192.00  4.1026105E-01
   7193.00  4.0863475E-01
   7194.00  4.0659354E-01
   7195.00  4.0417904E-01
   7196.00  4.0148190E-01
   7197.00  3.9863089E-01
   7198.00  3.9577046E-01
   7199.00  3.9303429E-01
   7200.00  3.9052352E-01
   7201.00  3.8829487E-01
   7202.00  3.8635963E-01
   7203.00  3.8469102E-01
   7204.00  3.8323681E-01
   7205.00  3.8193396E-01
   7206.00  3.8072209E-01
   7207.00  3.7955334E-01
   7208.00  3.7839769E-01
   7209.00  3.7724415E-01
   7210.00  3.7609884E-01
   7211.00  3.7498066E-01
   7212.00  3.7391467E-01
