    Energy    <xanes>    
  18946.00  3.1618930E-04
  18946.50  3.1984849E-04
  18947.00  3.2358828E-04
  18947.50  3.2741133E-04
  18948.00  3.3132045E-04
  18948.50  3.3531857E-04
  18949.00  3.3940873E-04
  18949.50  3.4359415E-04
  18950.00  3.4787817E-04
  18950.50  3.5226431E-04
  18951.00  3.5675625E-04
  18951.50  3.6135784E-04
  18952.00  3.6607312E-04
  18952.50  3.7090636E-04
  18953.00  3.7586201E-04
  18953.50  3.8094477E-04
  18954.00  3.8615956E-04
  18954.50  3.9151160E-04
  18955.00  3.9700633E-04
  18955.50  4.0264954E-04
  18956.00  4.0844730E-04
  18956.50  4.1440602E-04
  18957.00  4.2053249E-04
  18957.50  4.2683388E-04
  18958.00  4.3331775E-04
  18958.50  4.3999214E-04
  18959.00  4.4686555E-04
  18959.50  4.5394701E-04
  18960.00  4.6124608E-04
  18960.50  4.6877294E-04
  18961.00  4.7653842E-04
  18961.50  4.8455404E-04
  18962.00  4.9283207E-04
  18962.50  5.0138562E-04
  18963.00  5.1022869E-04
  18963.50  5.1937624E-04
  18964.00  5.2884429E-04
  18964.50  5.3865002E-04
  18965.00  5.4881188E-04
  18965.50  5.5934969E-04
  18966.00  5.7028478E-04
  18966.50  5.8164016E-04
  18967.00  5.9344065E-04
  18967.50  6.0571314E-04
  18968.00  6.1848671E-04
  18968.50  6.3179294E-04
  18969.00  6.4566619E-04
  18969.50  6.6014387E-04
  18970.00  6.7526684E-04
  18970.50  6.9107980E-04
  18971.00  7.0763181E-04
  18971.50  7.2497679E-04
  18972.00  7.4317420E-04
  18972.50  7.6228980E-04
  18973.00  7.8239653E-04
  18973.50  8.0357554E-04
  18974.00  8.2591748E-04
  18974.50  8.4952395E-04
  18975.00  8.7450935E-04
  18975.50  9.0100301E-04
  18976.00  9.2915191E-04
  18976.50  9.5912398E-04
  18977.00  9.9111218E-04
  18977.50  1.0253398E-03
  18978.00  1.0620668E-03
  18978.50  1.1015988E-03
  18979.00  1.1442979E-03
  18979.50  1.1905973E-03
  18980.00  1.2410214E-03
  18980.50  1.2962128E-03
  18981.00  1.3569691E-03
  18981.10  1.3698722E-03
  18981.20  1.3830464E-03
  18981.30  1.3965014E-03
  18981.40  1.4102474E-03
  18981.50  1.4242951E-03
  18981.60  1.4386558E-03
  18981.70  1.4533412E-03
  18981.80  1.4683641E-03
  18981.90  1.4837374E-03
  18982.00  1.4994752E-03
  18982.10  1.5155921E-03
  18982.20  1.5321035E-03
  18982.30  1.5490259E-03
  18982.40  1.5663765E-03
  18982.50  1.5841735E-03
  18982.60  1.6024361E-03
  18982.70  1.6211847E-03
  18982.80  1.6404407E-03
  18982.90  1.6602268E-03
  18983.00  1.6805667E-03
  18983.10  1.7014857E-03
  18983.20  1.7230101E-03
  18983.30  1.7451677E-03
  18983.40  1.7679876E-03
  18983.50  1.7915002E-03
  18983.60  1.8157373E-03
  18983.70  1.8407316E-03
  18983.80  1.8665173E-03
  18983.90  1.8931292E-03
  18984.00  1.9206030E-03
  18984.10  1.9489747E-03
  18984.20  1.9782803E-03
  18984.30  2.0085555E-03
  18984.40  2.0398345E-03
  18984.50  2.0721500E-03
  18984.60  2.1055320E-03
  18984.70  2.1400067E-03
  18984.80  2.1755957E-03
  18984.90  2.2123147E-03
  18985.00  2.2501721E-03
  18985.10  2.2891682E-03
  18985.20  2.3292941E-03
  18985.30  2.3705305E-03
  18985.40  2.4128477E-03
  18985.50  2.4562055E-03
  18985.60  2.5005536E-03
  18985.70  2.5458333E-03
  18985.80  2.5919792E-03
  18985.90  2.6389221E-03
  18986.00  2.6865922E-03
  18986.10  2.7349683E-03
  18986.20  2.7840359E-03
  18986.30  2.8337455E-03
  18986.40  2.8840606E-03
  18986.50  2.9349599E-03
  18986.60  2.9864379E-03
  18986.70  3.0385053E-03
  18986.80  3.0911873E-03
  18986.90  3.1445228E-03
  18987.00  3.1985618E-03
  18987.10  3.2533638E-03
  18987.20  3.3089959E-03
  18987.30  3.3655317E-03
  18987.40  3.4230500E-03
  18987.50  3.4816336E-03
  18987.60  3.5413684E-03
  18987.70  3.6023420E-03
  18987.80  3.6646417E-03
  18987.90  3.7283523E-03
  18988.00  3.7935535E-03
  18988.10  3.8603180E-03
  18988.20  3.9287094E-03
  18988.30  3.9987814E-03
  18988.40  4.0705786E-03
  18988.50  4.1441381E-03
  18988.60  4.2194936E-03
  18988.70  4.2966795E-03
  18988.80  4.3757370E-03
  18988.90  4.4567196E-03
  18989.00  4.5396985E-03
  18989.10  4.6247671E-03
  18989.20  4.7120432E-03
  18989.30  4.8016704E-03
  18989.40  4.8938159E-03
  18989.50  4.9886673E-03
  18989.60  5.0864273E-03
  18989.70  5.1873063E-03
  18989.80  5.2915152E-03
  18989.90  5.3992566E-03
  18990.00  5.5107173E-03
  18990.10  5.6260601E-03
  18990.20  5.7454175E-03
  18990.30  5.8688858E-03
  18990.40  5.9965205E-03
  18990.50  6.1283337E-03
  18990.60  6.2642921E-03
  18990.70  6.4043166E-03
  18990.80  6.5482835E-03
  18990.90  6.6960267E-03
  18991.00  6.8473419E-03
  18991.20  7.1597095E-03
  18991.40  7.4831987E-03
  18991.60  7.8154283E-03
  18991.80  8.1540852E-03
  18992.00  8.4971706E-03
  18992.20  8.8431900E-03
  18992.40  9.1912667E-03
  18992.60  9.5411747E-03
  18992.80  9.8933030E-03
  18993.00  1.0248568E-02
  18993.20  1.0608286E-02
  18993.40  1.0974012E-02
  18993.60  1.1347373E-02
  18993.80  1.1729906E-02
  18994.00  1.2122932E-02
  18994.20  1.2527463E-02
  18994.40  1.2944168E-02
  18994.60  1.3373355E-02
  18994.80  1.3814979E-02
  18995.00  1.4268633E-02
  18995.20  1.4733517E-02
  18995.40  1.5208378E-02
  18995.60  1.5691413E-02
  18995.80  1.6180170E-02
  18996.00  1.6671473E-02
  18996.20  1.7161405E-02
  18996.40  1.7645386E-02
  18996.60  1.8118370E-02
  18996.80  1.8575151E-02
  18997.00  1.9010737E-02
  18997.20  1.9420759E-02
  18997.40  1.9801817E-02
  18997.60  2.0151727E-02
  18997.80  2.0469605E-02
  18998.00  2.0755807E-02
  18998.20  2.1011722E-02
  18998.40  2.1239480E-02
  18998.60  2.1441628E-02
  18998.80  2.1620826E-02
  18999.00  2.1779601E-02
  18999.20  2.1920185E-02
  18999.40  2.2044435E-02
  18999.60  2.2153839E-02
  18999.80  2.2249570E-02
  19000.00  2.2332593E-02
  19000.20  2.2403779E-02
  19000.40  2.2464005E-02
  19000.60  2.2514241E-02
  19000.80  2.2555592E-02
  19001.00  2.2589306E-02
  19001.20  2.2616749E-02
  19001.40  2.2639350E-02
  19001.60  2.2658540E-02
  19001.80  2.2675685E-02
  19002.00  2.2692027E-02
  19002.20  2.2708646E-02
  19002.40  2.2726433E-02
  19002.60  2.2746088E-02
  19002.80  2.2768132E-02
  19003.00  2.2792931E-02
  19003.20  2.2820727E-02
  19003.40  2.2851669E-02
  19003.60  2.2885847E-02
  19003.80  2.2923311E-02
  19004.00  2.2964088E-02
  19004.20  2.3008192E-02
  19004.40  2.3055624E-02
  19004.60  2.3106373E-02
  19004.80  2.3160407E-02
  19005.00  2.3217675E-02
  19005.20  2.3278100E-02
  19005.40  2.3341583E-02
  19005.60  2.3408001E-02
  19005.80  2.3477217E-02
  19006.00  2.3549077E-02
  19007.00  2.3942364E-02
  19008.00  2.4376537E-02
  19009.00  2.4824641E-02
  19010.00  2.5246786E-02
  19011.00  2.5592457E-02
  19012.00  2.5809300E-02
  19013.00  2.5848821E-02
  19014.00  2.5671949E-02
  19015.00  2.5261625E-02
  19016.00  2.4636632E-02
  19017.00  2.3853268E-02
  19018.00  2.2991042E-02
  19019.00  2.2131098E-02
  19020.00  2.1338677E-02
  19021.00  2.0655438E-02
  19022.00  2.0100725E-02
  19023.00  1.9677481E-02
  19024.00  1.9378742E-02
  19025.00  1.9192494E-02
  19026.00  1.9104285E-02
  19027.00  1.9097971E-02
  19028.00  1.9155456E-02
  19029.00  1.9256489E-02
  19030.00  1.9379367E-02
  19031.00  1.9502854E-02
  19032.00  1.9608860E-02
  19033.00  1.9684968E-02
  19034.00  1.9725830E-02
  19035.00  1.9732994E-02
  19036.00  1.9713371E-02
  19037.00  1.9676977E-02
  19038.00  1.9634637E-02
  19039.00  1.9596146E-02
  19040.00  1.9569102E-02
  19041.00  1.9558416E-02
  19042.00  1.9566406E-02
  19043.00  1.9593342E-02
  19044.00  1.9638257E-02
  19045.00  1.9699856E-02
  19046.00  1.9777311E-02
  19047.00  1.9870795E-02
  19048.00  1.9981659E-02
  19049.00  2.0112278E-02
  19050.00  2.0265632E-02
  19051.00  2.0444768E-02
  19052.00  2.0652263E-02
  19053.00  2.0889783E-02
  19054.00  2.1157755E-02
  19055.00  2.1455088E-02
  19056.00  2.1778891E-02
  19057.00  2.2124181E-02
  19058.00  2.2483677E-02
  19059.00  2.2847874E-02
  19060.00  2.3205495E-02
  19061.00  2.3544338E-02
  19062.00  2.3852333E-02
  19063.00  2.4118623E-02
  19064.00  2.4334485E-02
  19065.00  2.4494049E-02
  19066.00  2.4594790E-02
  19067.00  2.4637789E-02
  19068.00  2.4627699E-02
  19069.00  2.4572334E-02
  19070.00  2.4481868E-02
  19071.00  2.4367726E-02
  19072.00  2.4241409E-02
  19073.00  2.4113464E-02
  19074.00  2.3992799E-02
  19075.00  2.3886330E-02
  19076.00  2.3798897E-02
  19077.00  2.3733339E-02
  19078.00  2.3690662E-02
  19079.00  2.3670247E-02
  19080.00  2.3670114E-02
  19081.00  2.3687240E-02
  19082.00  2.3717937E-02
  19083.00  2.3758264E-02
  19084.00  2.3804427E-02
  19085.00  2.3853117E-02
  19086.00  2.3901725E-02
