    Energy    <xanes>    
   5949.00  2.6992385E-04
   5949.50  2.7316489E-04
   5950.00  2.7647846E-04
   5950.50  2.7986697E-04
   5951.00  2.8333297E-04
   5951.50  2.8687910E-04
   5952.00  2.9050813E-04
   5952.50  2.9422296E-04
   5953.00  2.9802663E-04
   5953.50  3.0192232E-04
   5954.00  3.0591336E-04
   5954.50  3.1000325E-04
   5955.00  3.1419564E-04
   5955.50  3.1849439E-04
   5956.00  3.2290353E-04
   5956.50  3.2742733E-04
   5957.00  3.3207024E-04
   5957.50  3.3683696E-04
   5958.00  3.4173245E-04
   5958.50  3.4676192E-04
   5959.00  3.5193087E-04
   5959.50  3.5724511E-04
   5960.00  3.6271076E-04
   5960.50  3.6833430E-04
   5961.00  3.7412257E-04
   5961.50  3.8008283E-04
   5962.00  3.8622274E-04
   5962.50  3.9255046E-04
   5963.00  3.9907460E-04
   5963.50  4.0580433E-04
   5964.00  4.1274941E-04
   5964.50  4.1992020E-04
   5965.00  4.2732773E-04
   5965.50  4.3498377E-04
   5966.00  4.4290089E-04
   5966.50  4.5109249E-04
   5967.00  4.5957291E-04
   5967.50  4.6835751E-04
   5968.00  4.7746276E-04
   5968.50  4.8690631E-04
   5969.00  4.9670714E-04
   5969.50  5.0688568E-04
   5970.00  5.1746394E-04
   5970.50  5.2846564E-04
   5971.00  5.3991646E-04
   5971.50  5.5184416E-04
   5972.00  5.6427883E-04
   5972.50  5.7725317E-04
   5973.00  5.9080274E-04
   5973.50  6.0496628E-04
   5974.00  6.1978611E-04
   5974.50  6.3530854E-04
   5975.00  6.5158433E-04
   5975.50  6.6866929E-04
   5976.00  6.8662491E-04
   5976.50  7.0551907E-04
   5977.00  7.2542700E-04
   5977.50  7.4643222E-04
   5978.00  7.6862779E-04
   5978.50  7.9211771E-04
   5979.00  8.1701865E-04
   5979.50  8.4346194E-04
   5980.00  8.7159606E-04
   5980.50  9.0158958E-04
   5981.00  9.3363478E-04
   5981.50  9.6795220E-04
   5982.00  1.0047962E-03
   5982.50  1.0444618E-03
   5983.00  1.0872941E-03
   5983.50  1.1336992E-03
   5984.00  1.1841598E-03
   5984.10  1.1947875E-03
   5984.20  1.2056053E-03
   5984.30  1.2166187E-03
   5984.40  1.2278331E-03
   5984.50  1.2392545E-03
   5984.60  1.2508887E-03
   5984.70  1.2627422E-03
   5984.80  1.2748214E-03
   5984.90  1.2871333E-03
   5985.00  1.2996849E-03
   5985.10  1.3124836E-03
   5985.20  1.3255374E-03
   5985.30  1.3388542E-03
   5985.40  1.3524425E-03
   5985.50  1.3663113E-03
   5985.60  1.3804698E-03
   5985.70  1.3949276E-03
   5985.80  1.4096951E-03
   5985.90  1.4247827E-03
   5986.00  1.4402018E-03
   5986.10  1.4559638E-03
   5986.20  1.4720812E-03
   5986.30  1.4885667E-03
   5986.40  1.5054339E-03
   5986.50  1.5226968E-03
   5986.60  1.5403703E-03
   5986.70  1.5584699E-03
   5986.80  1.5770118E-03
   5986.90  1.5960131E-03
   5987.00  1.6154915E-03
   5987.10  1.6354657E-03
   5987.20  1.6559551E-03
   5987.30  1.6769799E-03
   5987.40  1.6985612E-03
   5987.50  1.7207207E-03
   5987.60  1.7434809E-03
   5987.70  1.7668653E-03
   5987.80  1.7908976E-03
   5987.90  1.8156026E-03
   5988.00  1.8410053E-03
   5988.10  1.8671314E-03
   5988.20  1.8940071E-03
   5988.30  1.9216591E-03
   5988.40  1.9501145E-03
   5988.50  1.9794014E-03
   5988.60  2.0095483E-03
   5988.70  2.0405852E-03
   5988.80  2.0725434E-03
   5988.90  2.1054559E-03
   5989.00  2.1393580E-03
   5989.10  2.1743378E-03
   5989.20  2.2104888E-03
   5989.30  2.2478589E-03
   5989.40  2.2864996E-03
   5989.50  2.3264666E-03
   5989.60  2.3678193E-03
   5989.70  2.4106207E-03
   5989.80  2.4549371E-03
   5989.90  2.5008380E-03
   5990.00  2.5483951E-03
   5990.10  2.5976820E-03
   5990.20  2.6487734E-03
   5990.30  2.7017444E-03
   5990.40  2.7566697E-03
   5990.50  2.8136228E-03
   5990.60  2.8726752E-03
   5990.70  2.9338962E-03
   5990.80  2.9973514E-03
   5990.90  3.0631035E-03
   5991.00  3.1312112E-03
   5991.10  3.2017304E-03
   5991.20  3.2747144E-03
   5991.30  3.3502152E-03
   5991.40  3.4282849E-03
   5991.50  3.5089783E-03
   5991.60  3.5923545E-03
   5991.70  3.6784793E-03
   5991.80  3.7674274E-03
   5991.90  3.8592837E-03
   5992.00  3.9541436E-03
   5992.10  4.0521124E-03
   5992.20  4.1533035E-03
   5992.30  4.2578346E-03
   5992.40  4.3658226E-03
   5992.50  4.4773783E-03
   5992.60  4.5925991E-03
   5992.70  4.7115624E-03
   5992.80  4.8343191E-03
   5992.90  4.9608875E-03
   5993.00  5.0912487E-03
   5993.10  5.2253435E-03
   5993.20  5.3630699E-03
   5993.30  5.5042837E-03
   5993.40  5.6487994E-03
   5993.50  5.7963937E-03
   5993.60  5.9468091E-03
   5993.70  6.0997600E-03
   5993.80  6.2549392E-03
   5993.90  6.4120254E-03
   5994.00  6.5706911E-03
   5994.20  6.8914717E-03
   5994.40  7.2148580E-03
   5994.60  7.5388380E-03
   5994.80  7.8619847E-03
   5995.00  8.1835399E-03
   5995.20  8.5034089E-03
   5995.40  8.8220907E-03
   5995.60  9.1405657E-03
   5995.80  9.4601636E-03
   5996.00  9.7824293E-03
   5996.20  1.0109006E-02
   5996.40  1.0441559E-02
   5996.60  1.0781739E-02
   5996.80  1.1131200E-02
   5997.00  1.1491640E-02
   5997.20  1.1864851E-02
   5997.40  1.2252751E-02
   5997.60  1.2657383E-02
   5997.80  1.3080880E-02
   5998.00  1.3525389E-02
   5998.20  1.3992992E-02
   5998.40  1.4485596E-02
   5998.60  1.5004836E-02
   5998.80  1.5551954E-02
   5999.00  1.6127682E-02
   5999.20  1.6732114E-02
   5999.40  1.7364591E-02
   5999.60  1.8023594E-02
   5999.80  1.8706669E-02
   6000.00  1.9410380E-02
   6000.20  2.0130295E-02
   6000.40  2.0861001E-02
   6000.60  2.1596148E-02
   6000.80  2.2328519E-02
   6001.00  2.3050130E-02
   6001.20  2.3752358E-02
   6001.40  2.4426105E-02
   6001.60  2.5062014E-02
   6001.80  2.5650731E-02
   6002.00  2.6183224E-02
   6002.20  2.6651160E-02
   6002.40  2.7047316E-02
   6002.60  2.7365996E-02
   6002.80  2.7603412E-02
   6003.00  2.7757970E-02
   6003.20  2.7830423E-02
   6003.40  2.7823851E-02
   6003.60  2.7743471E-02
   6003.80  2.7596284E-02
   6004.00  2.7390627E-02
   6004.20  2.7135665E-02
   6004.40  2.6840888E-02
   6004.60  2.6515667E-02
   6004.80  2.6168881E-02
   6005.00  2.5808652E-02
   6005.20  2.5442157E-02
   6005.40  2.5075546E-02
   6005.60  2.4713908E-02
   6005.80  2.4361308E-02
   6006.00  2.4020853E-02
   6006.20  2.3694785E-02
   6006.40  2.3384588E-02
   6006.60  2.3091097E-02
   6006.80  2.2814617E-02
   6007.00  2.2555021E-02
   6007.20  2.2311852E-02
   6007.40  2.2084410E-02
   6007.60  2.1871825E-02
   6007.80  2.1673129E-02
   6008.00  2.1487301E-02
   6008.20  2.1313311E-02
   6008.40  2.1150154E-02
   6008.60  2.0996868E-02
   6008.80  2.0852547E-02
   6009.00  2.0716352E-02
   6010.00  2.0132413E-02
   6011.00  1.9661263E-02
   6012.00  1.9261065E-02
   6013.00  1.8914515E-02
   6014.00  1.8617666E-02
   6015.00  1.8370101E-02
   6016.00  1.8173675E-02
   6017.00  1.8035917E-02
   6018.00  1.7969821E-02
   6019.00  1.7988575E-02
   6020.00  1.8099665E-02
   6021.00  1.8301998E-02
   6022.00  1.8586546E-02
   6023.00  1.8939135E-02
   6024.00  1.9343748E-02
   6025.00  1.9785010E-02
   6026.00  2.0248957E-02
   6027.00  2.0722040E-02
   6028.00  2.1189268E-02
   6029.00  2.1632855E-02
   6030.00  2.2032458E-02
   6031.00  2.2367304E-02
   6032.00  2.2619585E-02
   6033.00  2.2777825E-02
   6034.00  2.2838881E-02
   6035.00  2.2807891E-02
   6036.00  2.2696497E-02
   6037.00  2.2520248E-02
   6038.00  2.2296040E-02
   6039.00  2.2040071E-02
   6040.00  2.1766445E-02
   6041.00  2.1486476E-02
   6042.00  2.1208689E-02
   6043.00  2.0939395E-02
   6044.00  2.0683554E-02
   6045.00  2.0445534E-02
   6046.00  2.0229476E-02
   6047.00  2.0039186E-02
   6048.00  1.9877719E-02
   6049.00  1.9746920E-02
   6050.00  1.9647162E-02
   6051.00  1.9577388E-02
   6052.00  1.9535392E-02
   6053.00  1.9518236E-02
   6054.00  1.9522676E-02
   6055.00  1.9545535E-02
   6056.00  1.9583983E-02
   6057.00  1.9635717E-02
   6058.00  1.9699041E-02
   6059.00  1.9772880E-02
   6060.00  1.9856723E-02
   6061.00  1.9950477E-02
   6062.00  2.0054204E-02
   6063.00  2.0167732E-02
   6064.00  2.0290223E-02
   6065.00  2.0419811E-02
   6066.00  2.0553427E-02
   6067.00  2.0686860E-02
   6068.00  2.0815019E-02
   6069.00  2.0932344E-02
   6070.00  2.1033295E-02
   6071.00  2.1112884E-02
   6072.00  2.1167186E-02
   6073.00  2.1193755E-02
   6074.00  2.1191846E-02
   6075.00  2.1162400E-02
   6076.00  2.1107775E-02
   6077.00  2.1031328E-02
   6078.00  2.0936958E-02
   6079.00  2.0828734E-02
   6080.00  2.0710666E-02
   6081.00  2.0586601E-02
   6082.00  2.0460191E-02
   6083.00  2.0334842E-02
   6084.00  2.0213633E-02
   6085.00  2.0099175E-02
   6086.00  1.9993459E-02
   6087.00  1.9897748E-02
   6088.00  1.9812547E-02
   6089.00  1.9737682E-02
