    Energy    <xanes>    
   7072.00  1.2917843E-04
   7072.50  1.3064731E-04
   7073.00  1.3214784E-04
   7073.50  1.3368103E-04
   7074.00  1.3524797E-04
   7074.50  1.3684977E-04
   7075.00  1.3848760E-04
   7075.50  1.4016268E-04
   7076.00  1.4187628E-04
   7076.50  1.4362974E-04
   7077.00  1.4542446E-04
   7077.50  1.4726190E-04
   7078.00  1.4914359E-04
   7078.50  1.5107114E-04
   7079.00  1.5304624E-04
   7079.50  1.5507065E-04
   7080.00  1.5714623E-04
   7080.50  1.5927494E-04
   7081.00  1.6145882E-04
   7081.50  1.6370003E-04
   7082.00  1.6600086E-04
   7082.50  1.6836368E-04
   7083.00  1.7079102E-04
   7083.50  1.7328556E-04
   7084.00  1.7585009E-04
   7084.50  1.7848758E-04
   7085.00  1.8120118E-04
   7085.50  1.8399422E-04
   7086.00  1.8687019E-04
   7086.50  1.8983285E-04
   7087.00  1.9288613E-04
   7087.50  1.9603425E-04
   7088.00  1.9928167E-04
   7088.50  2.0263314E-04
   7089.00  2.0609373E-04
   7089.50  2.0966881E-04
   7090.00  2.1336416E-04
   7090.50  2.1718592E-04
   7091.00  2.2114067E-04
   7091.50  2.2523547E-04
   7092.00  2.2947787E-04
   7092.50  2.3387599E-04
   7093.00  2.3843856E-04
   7093.50  2.4317499E-04
   7094.00  2.4809543E-04
   7094.50  2.5321083E-04
   7095.00  2.5853307E-04
   7095.50  2.6407502E-04
   7096.00  2.6985066E-04
   7096.50  2.7587522E-04
   7097.00  2.8216533E-04
   7097.50  2.8873916E-04
   7098.00  2.9561667E-04
   7098.50  3.0281980E-04
   7099.00  3.1037276E-04
   7099.50  3.1830237E-04
   7100.00  3.2663842E-04
   7100.50  3.3541416E-04
   7101.00  3.4466687E-04
   7101.50  3.5443857E-04
   7102.00  3.6477690E-04
   7102.50  3.7573623E-04
   7103.00  3.8737913E-04
   7103.50  3.9977823E-04
   7104.00  4.1301878E-04
   7104.50  4.2720208E-04
   7105.00  4.4245043E-04
   7105.50  4.5891411E-04
   7106.00  4.7678203E-04
   7106.50  4.9629808E-04
   7107.00  5.1778779E-04
   7107.10  5.2235939E-04
   7107.20  5.2703180E-04
   7107.30  5.3180976E-04
   7107.40  5.3669842E-04
   7107.50  5.4170336E-04
   7107.60  5.4683062E-04
   7107.70  5.5208682E-04
   7107.80  5.5747917E-04
   7107.90  5.6301557E-04
   7108.00  5.6870470E-04
   7108.10  5.7455612E-04
   7108.20  5.8058038E-04
   7108.30  5.8678920E-04
   7108.40  5.9319560E-04
   7108.50  5.9981408E-04
   7108.60  6.0666092E-04
   7108.70  6.1375438E-04
   7108.80  6.2111505E-04
   7108.90  6.2876628E-04
   7109.00  6.3673459E-04
   7109.10  6.4505026E-04
   7109.20  6.5374801E-04
   7109.30  6.6286788E-04
   7109.40  6.7245618E-04
   7109.50  6.8256679E-04
   7109.60  6.9326275E-04
   7109.70  7.0461813E-04
   7109.80  7.1672054E-04
   7109.90  7.2967413E-04
   7110.00  7.4360345E-04
   7110.10  7.5865841E-04
   7110.20  7.7502050E-04
   7110.30  7.9291081E-04
   7110.40  8.1260032E-04
   7110.50  8.3442313E-04
   7110.60  8.5879329E-04
   7110.70  8.8622621E-04
   7110.80  9.1736526E-04
   7110.90  9.5301364E-04
   7111.00  9.9416999E-04
   7111.10  1.0420620E-03
   7111.20  1.0981635E-03
   7111.30  1.1641629E-03
   7111.40  1.2418173E-03
   7111.50  1.3325759E-03
   7111.60  1.4367986E-03
   7111.70  1.5524107E-03
   7111.80  1.6731160E-03
   7111.90  1.7870775E-03
   7112.00  1.8780055E-03
   7112.10  1.9302598E-03
   7112.20  1.9363436E-03
   7112.30  1.9012025E-03
   7112.40  1.8394095E-03
   7112.50  1.7680606E-03
   7112.60  1.7009991E-03
   7112.70  1.6468445E-03
   7112.80  1.6097097E-03
   7112.90  1.5906508E-03
   7113.00  1.5886823E-03
   7113.10  1.6010242E-03
   7113.20  1.6227659E-03
   7113.30  1.6465889E-03
   7113.40  1.6636152E-03
   7113.50  1.6660948E-03
   7113.60  1.6508300E-03
   7113.70  1.6205576E-03
   7113.80  1.5819366E-03
   7113.90  1.5420460E-03
   7114.00  1.5060345E-03
   7114.10  1.4766346E-03
   7114.20  1.4547394E-03
   7114.30  1.4401754E-03
   7114.40  1.4322868E-03
   7114.50  1.4302825E-03
   7114.60  1.4334130E-03
   7114.70  1.4410442E-03
   7114.80  1.4526750E-03
   7114.90  1.4679267E-03
   7115.00  1.4865220E-03
   7115.10  1.5082624E-03
   7115.20  1.5330113E-03
   7115.30  1.5606825E-03
   7115.40  1.5912330E-03
   7115.50  1.6246588E-03
   7115.60  1.6609920E-03
   7115.70  1.7002994E-03
   7115.80  1.7426810E-03
   7115.90  1.7882704E-03
   7116.00  1.8372351E-03
   7116.10  1.8897784E-03
   7116.20  1.9461421E-03
   7116.30  2.0066094E-03
   7116.40  2.0715086E-03
   7116.50  2.1412174E-03
   7116.60  2.2161679E-03
   7116.70  2.2968518E-03
   7116.80  2.3838266E-03
   7116.90  2.4777222E-03
   7117.00  2.5792461E-03
   7117.20  2.8084343E-03
   7117.40  3.0787888E-03
   7117.60  3.3990365E-03
   7117.80  3.7786214E-03
   7118.00  4.2259386E-03
   7118.20  4.7449166E-03
   7118.40  5.3308755E-03
   7118.60  5.9694302E-03
   7118.80  6.6433002E-03
   7119.00  7.3457335E-03
   7119.20  8.0890072E-03
   7119.40  8.8976680E-03
   7119.60  9.7897470E-03
   7119.80  1.0756437E-02
   7120.00  1.1749757E-02
   7120.20  1.2688903E-02
   7120.40  1.3491673E-02
   7120.60  1.4116187E-02
   7120.80  1.4580776E-02
   7121.00  1.4947800E-02
   7121.20  1.5291113E-02
   7121.40  1.5673229E-02
   7121.60  1.6139637E-02
   7121.80  1.6722912E-02
   7122.00  1.7447440E-02
   7122.20  1.8330470E-02
   7122.40  1.9380419E-02
   7122.60  2.0594659E-02
   7122.80  2.1957642E-02
   7123.00  2.3439189E-02
   7123.20  2.4993440E-02
   7123.40  2.6560274E-02
   7123.60  2.8071589E-02
   7123.80  2.9462945E-02
   7124.00  3.0686980E-02
   7124.20  3.1722175E-02
   7124.40  3.2572776E-02
   7124.60  3.3261253E-02
   7124.80  3.3818622E-02
   7125.00  3.4277385E-02
   7125.20  3.4668729E-02
   7125.40  3.5022784E-02
   7125.60  3.5369630E-02
   7125.80  3.5739269E-02
   7126.00  3.6160004E-02
   7126.20  3.6655804E-02
   7126.40  3.7243577E-02
   7126.60  3.7931018E-02
   7126.80  3.8715309E-02
   7127.00  3.9582739E-02
   7127.20  4.0509341E-02
   7127.40  4.1462623E-02
   7127.60  4.2404350E-02
   7127.80  4.3294025E-02
   7128.00  4.4092572E-02
   7128.20  4.4765655E-02
   7128.40  4.5286221E-02
   7128.60  4.5636112E-02
   7128.80  4.5806691E-02
   7129.00  4.5798590E-02
   7129.20  4.5620657E-02
   7129.40  4.5288321E-02
   7129.60  4.4821642E-02
   7129.80  4.4243347E-02
   7130.00  4.3577090E-02
   7130.20  4.2846065E-02
   7130.40  4.2071987E-02
   7130.60  4.1274409E-02
   7130.80  4.0470294E-02
   7131.00  3.9673810E-02
   7131.20  3.8896302E-02
   7131.40  3.8146411E-02
   7131.60  3.7430317E-02
   7131.80  3.6752070E-02
   7132.00  3.6113971E-02
   7133.00  3.3532320E-02
   7134.00  3.1886280E-02
   7135.00  3.1063230E-02
   7136.00  3.0910690E-02
   7137.00  3.1161634E-02
   7138.00  3.1500226E-02
   7139.00  3.1695259E-02
   7140.00  3.1660976E-02
   7141.00  3.1422216E-02
   7142.00  3.1043615E-02
   7143.00  3.0577307E-02
   7144.00  3.0055424E-02
   7145.00  2.9507466E-02
   7146.00  2.8967789E-02
   7147.00  2.8470332E-02
   7148.00  2.8045043E-02
   7149.00  2.7716005E-02
   7150.00  2.7495148E-02
   7151.00  2.7376836E-02
   7152.00  2.7341941E-02
   7153.00  2.7369017E-02
   7154.00  2.7442696E-02
   7155.00  2.7554182E-02
   7156.00  2.7696663E-02
   7157.00  2.7860998E-02
   7158.00  2.8034805E-02
   7159.00  2.8204968E-02
   7160.00  2.8361432E-02
   7161.00  2.8499759E-02
   7162.00  2.8621185E-02
   7163.00  2.8730861E-02
   7164.00  2.8835907E-02
   7165.00  2.8944209E-02
   7166.00  2.9063840E-02
   7167.00  2.9202511E-02
   7168.00  2.9366617E-02
   7169.00  2.9560020E-02
   7170.00  2.9783160E-02
   7171.00  3.0033109E-02
   7172.00  3.0304591E-02
   7173.00  3.0591323E-02
   7174.00  3.0886933E-02
   7175.00  3.1185129E-02
   7176.00  3.1479350E-02
   7177.00  3.1762513E-02
   7178.00  3.2027396E-02
   7179.00  3.2267714E-02
   7180.00  3.2479393E-02
   7181.00  3.2661282E-02
   7182.00  3.2814897E-02
   7183.00  3.2943378E-02
   7184.00  3.3050195E-02
   7185.00  3.3138036E-02
   7186.00  3.3208090E-02
   7187.00  3.3259806E-02
   7188.00  3.3291173E-02
   7189.00  3.3299408E-02
   7190.00  3.3281819E-02
   7191.00  3.3236537E-02
   7192.00  3.3163023E-02
   7193.00  3.3062381E-02
   7194.00  3.2937516E-02
   7195.00  3.2793102E-02
   7196.00  3.2635262E-02
   7197.00  3.2471035E-02
   7198.00  3.2307758E-02
   7199.00  3.2152538E-02
   7200.00  3.2011891E-02
   7201.00  3.1891548E-02
   7202.00  3.1796341E-02
   7203.00  3.1730111E-02
   7204.00  3.1695588E-02
   7205.00  3.1694228E-02
   7206.00  3.1725985E-02
   7207.00  3.1789060E-02
   7208.00  3.1879690E-02
   7209.00  3.1992169E-02
   7210.00  3.2119251E-02
   7211.00  3.2253007E-02
   7212.00  3.2385948E-02
