    Energy    <xanes>    
   7072.00  2.7181633E-04
   7072.50  2.7510282E-04
   7073.00  2.7846470E-04
   7073.50  2.8190455E-04
   7074.00  2.8542509E-04
   7074.50  2.8902918E-04
   7075.00  2.9271979E-04
   7075.50  2.9650005E-04
   7076.00  3.0037323E-04
   7076.50  3.0434277E-04
   7077.00  3.0841227E-04
   7077.50  3.1258553E-04
   7078.00  3.1686652E-04
   7078.50  3.2125942E-04
   7079.00  3.2576864E-04
   7079.50  3.3039882E-04
   7080.00  3.3515482E-04
   7080.50  3.4004181E-04
   7081.00  3.4506520E-04
   7081.50  3.5023074E-04
   7082.00  3.5554447E-04
   7082.50  3.6101280E-04
   7083.00  3.6664249E-04
   7083.50  3.7244072E-04
   7084.00  3.7841508E-04
   7084.50  3.8457362E-04
   7085.00  3.9092491E-04
   7085.50  3.9747803E-04
   7086.00  4.0424263E-04
   7086.50  4.1122900E-04
   7087.00  4.1844810E-04
   7087.50  4.2591159E-04
   7088.00  4.3363196E-04
   7088.50  4.4162253E-04
   7089.00  4.4989755E-04
   7089.50  4.5847229E-04
   7090.00  4.6736311E-04
   7090.50  4.7658759E-04
   7091.00  4.8616462E-04
   7091.50  4.9611452E-04
   7092.00  5.0645920E-04
   7092.50  5.1722230E-04
   7093.00  5.2842938E-04
   7093.50  5.4010809E-04
   7094.00  5.5228841E-04
   7094.50  5.6500290E-04
   7095.00  5.7828698E-04
   7095.50  5.9217921E-04
   7096.00  6.0672174E-04
   7096.50  6.2196062E-04
   7097.00  6.3794634E-04
   7097.50  6.5473438E-04
   7098.00  6.7238577E-04
   7098.50  6.9096786E-04
   7099.00  7.1055516E-04
   7099.50  7.3123028E-04
   7100.00  7.5308510E-04
   7100.50  7.7622210E-04
   7101.00  8.0075590E-04
   7101.50  8.2681518E-04
   7102.00  8.5454487E-04
   7102.50  8.8410886E-04
   7103.00  9.1569318E-04
   7103.50  9.4950996E-04
   7104.00  9.8580222E-04
   7104.50  1.0248498E-03
   7105.00  1.0669768E-03
   7105.50  1.1125610E-03
   7106.00  1.1620457E-03
   7106.50  1.2159555E-03
   7107.00  1.2749169E-03
   7107.10  1.2873793E-03
   7107.20  1.3000802E-03
   7107.30  1.3130267E-03
   7107.40  1.3262262E-03
   7107.50  1.3396864E-03
   7107.60  1.3534152E-03
   7107.70  1.3674211E-03
   7107.80  1.3817127E-03
   7107.90  1.3962992E-03
   7108.00  1.4111902E-03
   7108.10  1.4263958E-03
   7108.20  1.4419264E-03
   7108.30  1.4577932E-03
   7108.40  1.4740078E-03
   7108.50  1.4905824E-03
   7108.60  1.5075300E-03
   7108.70  1.5248643E-03
   7108.80  1.5425997E-03
   7108.90  1.5607515E-03
   7109.00  1.5793360E-03
   7109.10  1.5983705E-03
   7109.20  1.6178736E-03
   7109.30  1.6378649E-03
   7109.40  1.6583657E-03
   7109.50  1.6793988E-03
   7109.60  1.7009890E-03
   7109.70  1.7231631E-03
   7109.80  1.7459501E-03
   7109.90  1.7693822E-03
   7110.00  1.7934946E-03
   7110.10  1.8183263E-03
   7110.20  1.8439210E-03
   7110.30  1.8703276E-03
   7110.40  1.8976018E-03
   7110.50  1.9258069E-03
   7110.60  1.9550162E-03
   7110.70  1.9853147E-03
   7110.80  2.0168022E-03
   7110.90  2.0495967E-03
   7111.00  2.0838383E-03
   7111.10  2.1196935E-03
   7111.20  2.1573597E-03
   7111.30  2.1970663E-03
   7111.40  2.2390706E-03
   7111.50  2.2836404E-03
   7111.60  2.3310127E-03
   7111.70  2.3813180E-03
   7111.80  2.4344712E-03
   7111.90  2.4900559E-03
   7112.00  2.5473587E-03
   7112.10  2.6055041E-03
   7112.20  2.6632273E-03
   7112.30  2.7194318E-03
   7112.40  2.7735812E-03
   7112.50  2.8259394E-03
   7112.60  2.8774941E-03
   7112.70  2.9296005E-03
   7112.80  2.9835791E-03
   7112.90  3.0404736E-03
   7113.00  3.1010050E-03
   7113.10  3.1656421E-03
   7113.20  3.2347043E-03
   7113.30  3.3084489E-03
   7113.40  3.3871289E-03
   7113.50  3.4710267E-03
   7113.60  3.5604696E-03
   7113.70  3.6558367E-03
   7113.80  3.7575633E-03
   7113.90  3.8661464E-03
   7114.00  3.9821517E-03
   7114.10  4.1062220E-03
   7114.20  4.2390873E-03
   7114.30  4.3815759E-03
   7114.40  4.5346273E-03
   7114.50  4.6993074E-03
   7114.60  4.8768256E-03
   7114.70  5.0685544E-03
   7114.80  5.2760510E-03
   7114.90  5.5010804E-03
   7115.00  5.7456373E-03
   7115.10  6.0119674E-03
   7115.20  6.3025807E-03
   7115.30  6.6202565E-03
   7115.40  6.9680359E-03
   7115.50  7.3492043E-03
   7115.60  7.7672735E-03
   7115.70  8.2259836E-03
   7115.80  8.7293549E-03
   7115.90  9.2818013E-03
   7116.00  9.8882635E-03
   7116.10  1.0554230E-02
   7116.20  1.1285448E-02
   7116.30  1.2087147E-02
   7116.40  1.2962739E-02
   7116.50  1.3912208E-02
   7116.60  1.4930590E-02
   7116.70  1.6007181E-02
   7116.80  1.7126057E-02
   7116.90  1.8268262E-02
   7117.00  1.9415270E-02
   7117.20  2.1673377E-02
   7117.40  2.3874842E-02
   7117.60  2.6101297E-02
   7117.80  2.8471196E-02
   7118.00  3.1060573E-02
   7118.20  3.3855277E-02
   7118.40  3.6742108E-02
   7118.60  3.9552332E-02
   7118.80  4.2145811E-02
   7119.00  4.4475969E-02
   7119.20  4.6584853E-02
   7119.40  4.8542325E-02
   7119.60  5.0400616E-02
   7119.80  5.2205793E-02
   7120.00  5.4026600E-02
   7120.20  5.5954640E-02
   7120.40  5.8078104E-02
   7120.60  6.0453001E-02
   7120.80  6.3087620E-02
   7121.00  6.5941905E-02
   7121.20  6.8936967E-02
   7121.40  7.1971448E-02
   7121.60  7.4941172E-02
   7121.80  7.7754605E-02
   7122.00  8.0338630E-02
   7122.20  8.2636398E-02
   7122.40  8.4601120E-02
   7122.60  8.6188326E-02
   7122.80  8.7352287E-02
   7123.00  8.8053678E-02
   7123.20  8.8277215E-02
   7123.40  8.8047490E-02
   7123.60  8.7431387E-02
   7123.80  8.6525817E-02
   7124.00  8.5438407E-02
   7124.20  8.4269667E-02
   7124.40  8.3101254E-02
   7124.60  8.1991201E-02
   7124.80  8.0974681E-02
   7125.00  8.0067861E-02
   7125.20  7.9272720E-02
   7125.40  7.8581652E-02
   7125.60  7.7981553E-02
   7125.80  7.7457323E-02
   7126.00  7.6994560E-02
   7126.20  7.6581181E-02
   7126.40  7.6207916E-02
   7126.60  7.5867969E-02
   7126.80  7.5556322E-02
   7127.00  7.5269124E-02
   7127.20  7.5003342E-02
   7127.40  7.4756606E-02
   7127.60  7.4527057E-02
   7127.80  7.4313078E-02
   7128.00  7.4112894E-02
   7128.20  7.3924121E-02
   7128.40  7.3743405E-02
   7128.60  7.3566249E-02
   7128.80  7.3387093E-02
   7129.00  7.3199597E-02
   7129.20  7.2997086E-02
   7129.40  7.2773048E-02
   7129.60  7.2521614E-02
   7129.80  7.2237998E-02
   7130.00  7.1918844E-02
   7130.20  7.1562465E-02
   7130.40  7.1168937E-02
   7130.60  7.0740039E-02
   7130.80  7.0279053E-02
   7131.00  6.9790450E-02
   7131.20  6.9279534E-02
   7131.40  6.8752085E-02
   7131.60  6.8214037E-02
   7131.80  6.7671221E-02
   7132.00  6.7129150E-02
   7133.00  6.4584337E-02
   7134.00  6.2532692E-02
   7135.00  6.0986968E-02
   7136.00  5.9799855E-02
   7137.00  5.8824672E-02
   7138.00  5.7942039E-02
   7139.00  5.7065166E-02
   7140.00  5.6167404E-02
   7141.00  5.5286341E-02
   7142.00  5.4485079E-02
   7143.00  5.3810392E-02
   7144.00  5.3282140E-02
   7145.00  5.2904446E-02
   7146.00  5.2675473E-02
   7147.00  5.2588813E-02
   7148.00  5.2632963E-02
   7149.00  5.2794143E-02
   7150.00  5.3060332E-02
   7151.00  5.3422066E-02
   7152.00  5.3869355E-02
   7153.00  5.4388502E-02
   7154.00  5.4962875E-02
   7155.00  5.5577308E-02
   7156.00  5.6222022E-02
   7157.00  5.6893076E-02
   7158.00  5.7589876E-02
   7159.00  5.8311871E-02
   7160.00  5.9056083E-02
   7161.00  5.9816135E-02
   7162.00  6.0582777E-02
   7163.00  6.1345519E-02
   7164.00  6.2094761E-02
   7165.00  6.2823705E-02
   7166.00  6.3529438E-02
   7167.00  6.4212621E-02
   7168.00  6.4875628E-02
   7169.00  6.5519549E-02
   7170.00  6.6140984E-02
   7171.00  6.6729813E-02
   7172.00  6.7268973E-02
   7173.00  6.7736730E-02
   7174.00  6.8110862E-02
   7175.00  6.8373190E-02
   7176.00  6.8512750E-02
   7177.00  6.8526751E-02
   7178.00  6.8419588E-02
   7179.00  6.8200849E-02
   7180.00  6.7883165E-02
   7181.00  6.7480493E-02
   7182.00  6.7007016E-02
   7183.00  6.6476574E-02
   7184.00  6.5902437E-02
   7185.00  6.5297284E-02
   7186.00  6.4673334E-02
   7187.00  6.4042589E-02
   7188.00  6.3417139E-02
   7189.00  6.2809430E-02
   7190.00  6.2232373E-02
   7191.00  6.1699142E-02
   7192.00  6.1222618E-02
   7193.00  6.0814555E-02
   7194.00  6.0484593E-02
   7195.00  6.0239324E-02
   7196.00  6.0081577E-02
   7197.00  6.0010166E-02
   7198.00  6.0020279E-02
   7199.00  6.0104468E-02
   7200.00  6.0253941E-02
   7201.00  6.0459644E-02
   7202.00  6.0712749E-02
   7203.00  6.1004453E-02
   7204.00  6.1325354E-02
   7205.00  6.1664857E-02
   7206.00  6.2011069E-02
   7207.00  6.2351456E-02
   7208.00  6.2674212E-02
   7209.00  6.2969883E-02
   7210.00  6.3232642E-02
   7211.00  6.3460674E-02
   7212.00  6.3655564E-02
