    Energy    <xanes>    
   7072.00  1.6111864E-03
   7072.50  1.6307454E-03
   7073.00  1.6507553E-03
   7073.50  1.6712317E-03
   7074.00  1.6921912E-03
   7074.50  1.7136507E-03
   7075.00  1.7356283E-03
   7075.50  1.7581429E-03
   7076.00  1.7812141E-03
   7076.50  1.8048627E-03
   7077.00  1.8291105E-03
   7077.50  1.8539804E-03
   7078.00  1.8794965E-03
   7078.50  1.9056839E-03
   7079.00  1.9325694E-03
   7079.50  1.9601811E-03
   7080.00  1.9885484E-03
   7080.50  2.0177026E-03
   7081.00  2.0476766E-03
   7081.50  2.0785052E-03
   7082.00  2.1102251E-03
   7082.50  2.1428751E-03
   7083.00  2.1764966E-03
   7083.50  2.2111329E-03
   7084.00  2.2468305E-03
   7084.50  2.2836384E-03
   7085.00  2.3216086E-03
   7085.50  2.3607967E-03
   7086.00  2.4012617E-03
   7086.50  2.4430663E-03
   7087.00  2.4862776E-03
   7087.50  2.5309670E-03
   7088.00  2.5772111E-03
   7088.50  2.6250916E-03
   7089.00  2.6746959E-03
   7089.50  2.7261180E-03
   7090.00  2.7794587E-03
   7090.50  2.8348263E-03
   7091.00  2.8923373E-03
   7091.50  2.9521174E-03
   7092.00  3.0143022E-03
   7092.50  3.0790382E-03
   7093.00  3.1464842E-03
   7093.50  3.2168122E-03
   7094.00  3.2902090E-03
   7094.50  3.3668779E-03
   7095.00  3.4470405E-03
   7095.50  3.5309388E-03
   7096.00  3.6188376E-03
   7096.50  3.7110272E-03
   7097.00  3.8078268E-03
   7097.50  3.9095878E-03
   7098.00  4.0166985E-03
   7098.50  4.1295886E-03
   7099.00  4.2487353E-03
   7099.50  4.3746700E-03
   7100.00  4.5079861E-03
   7100.50  4.6493490E-03
   7101.00  4.7995069E-03
   7101.50  4.9593049E-03
   7102.00  5.1297011E-03
   7102.50  5.3117872E-03
   7103.00  5.5068129E-03
   7103.50  5.7162174E-03
   7104.00  5.9416673E-03
   7104.50  6.1851068E-03
   7105.00  6.4488216E-03
   7105.50  6.7355227E-03
   7106.00  7.0484602E-03
   7106.50  7.3915798E-03
   7107.00  7.7697458E-03
   7107.10  7.8507321E-03
   7107.20  7.9330988E-03
   7107.30  8.0168967E-03
   7107.40  8.1021795E-03
   7107.50  8.1890728E-03
   7107.60  8.2792584E-03
   7107.70  8.3711102E-03
   7107.80  8.4646960E-03
   7107.90  8.5600883E-03
   7108.00  8.6574431E-03
   7108.10  8.7587026E-03
   7108.20  8.8620171E-03
   7108.30  8.9674816E-03
   7108.40  9.0751985E-03
   7108.50  9.1853692E-03
   7108.60  9.3002637E-03
   7108.70  9.4177705E-03
   7108.80  9.5380311E-03
   7108.90  9.6612001E-03
   7109.00  9.7875533E-03
   7109.10  9.9197891E-03
   7109.20  1.0055497E-02
   7109.30  1.0194906E-02
   7109.40  1.0338274E-02
   7109.50  1.0480132E-02
   7109.60  1.0633983E-02
   7109.70  1.0793428E-02
   7109.80  1.0958912E-02
   7109.90  1.1130946E-02
   7110.00  1.1310121E-02
   7110.10  1.1497121E-02
   7110.20  1.1692750E-02
   7110.30  1.1897960E-02
   7110.40  1.2113879E-02
   7110.50  1.2341867E-02
   7110.60  1.2583564E-02
   7110.70  1.2840967E-02
   7110.80  1.3116515E-02
   7110.90  1.3413192E-02
   7111.00  1.3734635E-02
   7111.10  1.4085226E-02
   7111.20  1.4470096E-02
   7111.30  1.4894948E-02
   7111.40  1.5365433E-02
   7111.50  1.5885777E-02
   7111.60  1.6456276E-02
   7111.70  1.7069720E-02
   7111.80  1.7708013E-02
   7111.90  1.8341844E-02
   7112.00  1.8936898E-02
   7112.10  1.9462463E-02
   7112.20  1.9900855E-02
   7112.30  2.0251419E-02
   7112.40  2.0528122E-02
   7112.50  2.0754392E-02
   7112.60  2.0957800E-02
   7112.70  2.1165422E-02
   7112.80  2.1400322E-02
   7112.90  2.1679765E-02
   7113.00  2.2015267E-02
   7113.10  2.2413896E-02
   7113.20  2.2879977E-02
   7113.30  2.3416620E-02
   7113.40  2.4026826E-02
   7113.50  2.4714213E-02
   7113.60  2.5483446E-02
   7113.70  2.6340482E-02
   7113.80  2.7292683E-02
   7113.90  2.8348742E-02
   7114.00  2.9518304E-02
   7114.10  3.0811142E-02
   7114.20  3.2235874E-02
   7114.30  3.3798552E-02
   7114.40  3.5502039E-02
   7114.50  3.7346687E-02
   7114.60  3.9331237E-02
   7114.70  4.1455831E-02
   7114.80  4.3724884E-02
   7114.90  4.6149638E-02
   7115.00  4.8748530E-02
   7115.10  5.1543597E-02
   7115.20  5.4553843E-02
   7115.30  5.7788843E-02
   7115.40  6.1245428E-02
   7115.50  6.4908547E-02
   7115.60  6.8755889E-02
   7115.70  7.2764990E-02
   7115.80  7.6920960E-02
   7115.90  8.1222648E-02
   7116.00  8.5685425E-02
   7116.10  9.0339692E-02
   7116.20  9.5225295E-02
   7116.30  1.0038292E-01
   7116.40  1.0584419E-01
   7116.50  1.1162244E-01
   7116.60  1.1770653E-01
   7116.70  1.2405886E-01
   7116.80  1.3061779E-01
   7116.90  1.3730299E-01
   7117.00  1.4402226E-01
   7117.10  1.5055491E-01
   7117.20  1.5717351E-01
   7117.30  1.6323609E-01
   7117.40  1.6939380E-01
   7117.50  1.7479715E-01
   7117.60  1.8031224E-01
   7117.70  1.8509621E-01
   7117.80  1.9000831E-01
   7117.90  1.9439966E-01
   7118.00  1.9891964E-01
   7118.10  2.0320033E-01
   7118.20  2.0758242E-01
   7118.30  2.1195362E-01
   7118.40  2.1638084E-01
   7118.50  2.2093094E-01
   7118.60  2.2549845E-01
   7118.70  2.3027879E-01
   7118.80  2.3506455E-01
   7118.90  2.4016600E-01
   7119.00  2.4528449E-01
   7119.10  2.5081435E-01
   7119.20  2.5634892E-01
   7119.30  2.6229828E-01
   7119.40  2.6815210E-01
   7119.50  2.7427970E-01
   7119.70  2.8602283E-01
   7119.90  2.9685906E-01
   7120.10  3.0678522E-01
   7120.30  3.1653956E-01
   7120.50  3.2708548E-01
   7120.70  3.3913212E-01
   7120.90  3.5299565E-01
   7121.10  3.6864557E-01
   7121.30  3.8578871E-01
   7121.50  4.0396675E-01
   7121.70  4.2265980E-01
   7121.90  4.4135801E-01
   7122.10  4.5956659E-01
   7122.30  4.7675463E-01
   7122.50  4.9231338E-01
   7122.70  5.0559935E-01
   7122.90  5.1607550E-01
   7123.10  5.2347519E-01
   7123.30  5.2788924E-01
   7123.50  5.2974300E-01
   7123.70  5.2970664E-01
   7123.90  5.2858589E-01
   7124.10  5.2720151E-01
   7124.30  5.2625561E-01
   7124.50  5.2620766E-01
   7124.70  5.2719814E-01
   7124.90  5.2904555E-01
   7125.10  5.3131872E-01
   7125.30  5.3346157E-01
   7125.50  5.3492535E-01
   7125.70  5.3526116E-01
   7125.90  5.3415241E-01
   7126.10  5.3140466E-01
   7126.30  5.2692883E-01
   7126.50  5.2074068E-01
   7126.70  5.1297252E-01
   7126.90  5.0387627E-01
   7127.10  4.9380161E-01
   7127.30  4.8314924E-01
   7127.50  4.7231453E-01
   7127.70  4.6163950E-01
   7127.90  4.5138402E-01
   7128.10  4.4171767E-01
   7128.30  4.3272759E-01
   7128.50  4.2443594E-01
   7128.70  4.1682125E-01
   7128.90  4.0983908E-01
   7129.10  4.0343852E-01
   7129.30  3.9757287E-01
   7129.50  3.9220407E-01
   7129.70  3.8730257E-01
   7129.90  3.8284452E-01
   7130.10  3.7880845E-01
   7130.30  3.7517272E-01
   7130.50  3.7191415E-01
   7130.70  3.6900783E-01
   7130.90  3.6642751E-01
   7131.10  3.6414619E-01
   7131.30  3.6213665E-01
   7131.50  3.6037176E-01
   7131.70  3.5882467E-01
   7131.90  3.5746904E-01
   7132.10  3.5635263E-01
   7132.30  3.5541743E-01
   7132.50  3.5452131E-01
   7132.70  3.5364969E-01
   7132.90  3.5279153E-01
   7133.10  3.5206317E-01
   7133.30  3.5147041E-01
   7133.50  3.5087788E-01
   7133.70  3.5028618E-01
   7133.90  3.4969732E-01
   7134.10  3.4911943E-01
   7134.30  3.4855606E-01
   7134.50  3.4800457E-01
   7135.50  3.4511781E-01
   7136.50  3.4190593E-01
   7137.50  3.3832098E-01
   7138.50  3.3434473E-01
   7139.50  3.3003784E-01
   7140.50  3.2564276E-01
   7141.50  3.2148471E-01
   7142.50  3.1781843E-01
   7143.50  3.1476174E-01
   7144.50  3.1232896E-01
   7145.50  3.1052023E-01
   7146.50  3.0940081E-01
   7147.50  3.0910627E-01
   7148.50  3.0977493E-01
   7149.50  3.1147143E-01
   7150.50  3.1415197E-01
   7151.50  3.1768018E-01
   7152.50  3.2187667E-01
   7153.50  3.2657375E-01
   7154.50  3.3164838E-01
   7155.50  3.3702303E-01
   7156.50  3.4264353E-01
   7157.50  3.4845316E-01
   7158.50  3.5437904E-01
   7159.50  3.6033332E-01
   7160.50  3.6621972E-01
   7161.50  3.7193632E-01
   7162.50  3.7737587E-01
   7163.50  3.8243123E-01
   7164.50  3.8700835E-01
   7165.50  3.9104140E-01
   7166.50  3.9450155E-01
   7167.50  3.9739497E-01
   7168.50  3.9975208E-01
   7169.50  4.0161513E-01
   7170.50  4.0303039E-01
   7171.50  4.0404571E-01
   7172.50  4.0470815E-01
   7173.50  4.0505714E-01
   7174.50  4.0511433E-01
   7175.50  4.0487739E-01
   7176.50  4.0432384E-01
   7177.50  4.0342411E-01
   7178.50  4.0215700E-01
   7179.50  4.0052005E-01
   7180.50  3.9853183E-01
   7181.50  3.9622804E-01
   7182.50  3.9365524E-01
   7183.50  3.9086449E-01
   7184.50  3.8790665E-01
   7185.50  3.8483036E-01
   7186.50  3.8168342E-01
   7187.50  3.7851670E-01
   7188.50  3.7538812E-01
   7189.50  3.7236401E-01
   7190.50  3.6951672E-01
   7191.50  3.6691896E-01
   7192.50  3.6463665E-01
   7193.50  3.6272209E-01
   7194.50  3.6120940E-01
   7195.50  3.6011288E-01
   7196.50  3.5942769E-01
   7197.50  3.5913187E-01
   7198.50  3.5918937E-01
   7199.50  3.5955447E-01
   7200.50  3.6017771E-01
   7201.50  3.6101206E-01
   7202.50  3.6201689E-01
   7203.50  3.6315837E-01
   7204.50  3.6440634E-01
   7205.50  3.6573031E-01
   7206.50  3.6709697E-01
   7207.50  3.6847064E-01
   7208.50  3.6981616E-01
   7209.50  3.7110288E-01
   7210.50  3.7230763E-01
   7211.50  3.7341592E-01
