    Energy    <xanes>    
   7072.00  2.0932098E-03
   7072.50  2.1172096E-03
   7073.00  2.1417313E-03
   7073.50  2.1667920E-03
   7074.00  2.1924097E-03
   7074.50  2.2186031E-03
   7075.00  2.2453915E-03
   7075.50  2.2727954E-03
   7076.00  2.3008363E-03
   7076.50  2.3295363E-03
   7077.00  2.3589190E-03
   7077.50  2.3890088E-03
   7078.00  2.4198314E-03
   7078.50  2.4514139E-03
   7079.00  2.4837845E-03
   7079.50  2.5169730E-03
   7080.00  2.5510106E-03
   7080.50  2.5859301E-03
   7081.00  2.6217661E-03
   7081.50  2.6585551E-03
   7082.00  2.6963354E-03
   7082.50  2.7351473E-03
   7083.00  2.7750337E-03
   7083.50  2.8160395E-03
   7084.00  2.8582123E-03
   7084.50  2.9016026E-03
   7085.00  2.9462636E-03
   7085.50  2.9922518E-03
   7086.00  3.0396269E-03
   7086.50  3.0884527E-03
   7087.00  3.1387964E-03
   7087.50  3.1907299E-03
   7088.00  3.2443295E-03
   7088.50  3.2996764E-03
   7089.00  3.3568575E-03
   7089.50  3.4159652E-03
   7090.00  3.4770986E-03
   7090.50  3.5403635E-03
   7091.00  3.6058733E-03
   7091.50  3.6737498E-03
   7092.00  3.7441235E-03
   7092.50  3.8171353E-03
   7093.00  3.8929364E-03
   7093.50  3.9716904E-03
   7094.00  4.0535737E-03
   7094.50  4.1387776E-03
   7095.00  4.2275093E-03
   7095.50  4.3199939E-03
   7096.00  4.4164765E-03
   7096.50  4.5172246E-03
   7097.00  4.6225303E-03
   7097.50  4.7327139E-03
   7098.00  4.8481273E-03
   7098.50  4.9691580E-03
   7099.00  5.0962344E-03
   7099.50  5.2298311E-03
   7100.00  5.3704760E-03
   7100.50  5.5187585E-03
   7101.00  5.6753394E-03
   7101.50  5.8409631E-03
   7102.00  6.0164724E-03
   7102.50  6.2028270E-03
   7103.00  6.4011277E-03
   7103.50  6.6126459E-03
   7104.00  6.8388643E-03
   7104.50  7.0815294E-03
   7105.00  7.3427251E-03
   7105.50  7.6249752E-03
   7106.00  7.9313926E-03
   7106.50  8.2659052E-03
   7107.00  8.6336084E-03
   7107.10  8.7116942E-03
   7107.20  8.7914383E-03
   7107.30  8.8729109E-03
   7107.40  8.9561869E-03
   7107.50  9.0413474E-03
   7107.60  9.1284794E-03
   7107.70  9.2176770E-03
   7107.80  9.3090421E-03
   7107.90  9.4026853E-03
   7108.00  9.4987270E-03
   7108.10  9.5972984E-03
   7108.20  9.6985434E-03
   7108.30  9.8026196E-03
   7108.40  9.9097008E-03
   7108.50  1.0019979E-02
   7108.60  1.0133666E-02
   7108.70  1.0250999E-02
   7108.80  1.0372242E-02
   7108.90  1.0497690E-02
   7109.00  1.0627676E-02
   7109.10  1.0762575E-02
   7109.20  1.0902814E-02
   7109.30  1.1048877E-02
   7109.40  1.1201322E-02
   7109.50  1.1360785E-02
   7109.60  1.1528008E-02
   7109.70  1.1703847E-02
   7109.80  1.1889307E-02
   7109.90  1.2085567E-02
   7110.00  1.2294019E-02
   7110.10  1.2516320E-02
   7110.20  1.2754453E-02
   7110.30  1.3010802E-02
   7110.40  1.3288257E-02
   7110.50  1.3590340E-02
   7110.60  1.3921370E-02
   7110.70  1.4286670E-02
   7110.80  1.4692832E-02
   7110.90  1.5148041E-02
   7111.00  1.5662466E-02
   7111.10  1.6248681E-02
   7111.20  1.6922069E-02
   7111.30  1.7701006E-02
   7111.40  1.8606483E-02
   7111.50  1.9660486E-02
   7111.60  2.0882121E-02
   7111.70  2.2280430E-02
   7111.80  2.3843844E-02
   7111.90  2.5528748E-02
   7112.00  2.7252375E-02
   7112.10  2.8893919E-02
   7112.20  3.0304449E-02
   7112.30  3.1333695E-02
   7112.40  3.1871040E-02
   7112.50  3.1886425E-02
   7112.60  3.1441526E-02
   7112.70  3.0660642E-02
   7112.80  2.9684702E-02
   7112.90  2.8636951E-02
   7113.00  2.7609166E-02
   7113.10  2.6662333E-02
   7113.20  2.5832858E-02
   7113.30  2.5138690E-02
   7113.40  2.4584156E-02
   7113.50  2.4164252E-02
   7113.60  2.3868619E-02
   7113.70  2.3684770E-02
   7113.80  2.3600243E-02
   7113.90  2.3603766E-02
   7114.00  2.3685725E-02
   7114.10  2.3838223E-02
   7114.20  2.4054966E-02
   7114.30  2.4331066E-02
   7114.40  2.4662850E-02
   7114.50  2.5047676E-02
   7114.60  2.5483782E-02
   7114.70  2.5970170E-02
   7114.80  2.6506518E-02
   7114.90  2.7093139E-02
   7115.00  2.7730977E-02
   7115.10  2.8421643E-02
   7115.20  2.9167469E-02
   7115.30  2.9971558E-02
   7115.40  3.0837806E-02
   7115.50  3.1770931E-02
   7115.60  3.2776517E-02
   7115.70  3.3861100E-02
   7115.80  3.5032267E-02
   7115.90  3.6298760E-02
   7116.00  3.7670565E-02
   7116.10  3.9158969E-02
   7116.20  4.0776586E-02
   7116.30  4.2537341E-02
   7116.40  4.4456419E-02
   7116.50  4.6550179E-02
   7116.60  4.8836071E-02
   7116.70  5.1332550E-02
   7116.80  5.4058916E-02
   7116.90  5.7034923E-02
   7117.00  6.0279895E-02
   7117.20  6.7642054E-02
   7117.40  7.6220761E-02
   7117.60  8.5963159E-02
   7117.80  9.6705202E-02
   7118.00  1.0831646E-01
   7118.20  1.2082903E-01
   7118.40  1.3435824E-01
   7118.60  1.4892127E-01
   7118.80  1.6440661E-01
   7119.00  1.8069750E-01
   7119.20  1.9772213E-01
   7119.40  2.1534452E-01
   7119.60  2.3326704E-01
   7119.80  2.5108101E-01
   7120.00  2.6839883E-01
   7120.20  2.8496198E-01
   7120.40  3.0069463E-01
   7120.60  3.1568739E-01
   7120.80  3.3011397E-01
   7121.00  3.4413295E-01
   7121.20  3.5781022E-01
   7121.40  3.7105766E-01
   7121.60  3.8361870E-01
   7121.80  3.9515629E-01
   7122.00  4.0542348E-01
   7122.20  4.1440888E-01
   7122.40  4.2236504E-01
   7122.60  4.2971366E-01
   7122.80  4.3688649E-01
   7123.00  4.4418097E-01
   7123.20  4.5170055E-01
   7123.40  4.5940576E-01
   7123.60  4.6723325E-01
   7123.80  4.7519582E-01
   7124.00  4.8340094E-01
   7124.20  4.9199486E-01
   7124.40  5.0108501E-01
   7124.60  5.1068209E-01
   7124.80  5.2066883E-01
   7125.00  5.3078583E-01
   7125.20  5.4063085E-01
   7125.40  5.4968151E-01
   7125.60  5.5735478E-01
   7125.80  5.6310604E-01
   7126.00  5.6654692E-01
   7126.20  5.6754197E-01
   7126.40  5.6624398E-01
   7126.60  5.6305315E-01
   7126.80  5.5851953E-01
   7127.00  5.5322871E-01
   7127.20  5.4770766E-01
   7127.40  5.4236929E-01
   7127.60  5.3749570E-01
   7127.80  5.3324897E-01
   7128.00  5.2969611E-01
   7128.20  5.2683755E-01
   7128.40  5.2463260E-01
   7128.60  5.2301913E-01
   7128.80  5.2192720E-01
   7129.00  5.2128751E-01
   7129.20  5.2103615E-01
   7129.40  5.2111675E-01
   7129.60  5.2148107E-01
   7129.80  5.2208874E-01
   7130.00  5.2290650E-01
   7130.20  5.2390722E-01
   7130.40  5.2506896E-01
   7130.60  5.2637394E-01
   7130.80  5.2780752E-01
   7131.00  5.2935735E-01
   7131.20  5.3101252E-01
   7131.40  5.3276278E-01
   7131.60  5.3459796E-01
   7131.80  5.3650745E-01
   7132.00  5.3847978E-01
   7133.00  5.4879676E-01
   7134.00  5.5832727E-01
   7135.00  5.6512196E-01
   7136.00  5.6839877E-01
   7137.00  5.6858820E-01
   7138.00  5.6652662E-01
   7139.00  5.6287525E-01
   7140.00  5.5799565E-01
   7141.00  5.5207305E-01
   7142.00  5.4522434E-01
   7143.00  5.3748828E-01
   7144.00  5.2879276E-01
   7145.00  5.1898553E-01
   7146.00  5.0793713E-01
   7147.00  4.9570067E-01
   7148.00  4.8264673E-01
   7149.00  4.6944484E-01
   7150.00  4.5687184E-01
   7151.00  4.4558207E-01
   7152.00  4.3598017E-01
   7153.00  4.2822767E-01
   7154.00  4.2233107E-01
   7155.00  4.1824221E-01
   7156.00  4.1591948E-01
   7157.00  4.1533205E-01
   7158.00  4.1642321E-01
   7159.00  4.1906594E-01
   7160.00  4.2303969E-01
   7161.00  4.2804128E-01
   7162.00  4.3372430E-01
   7163.00  4.3974870E-01
   7164.00  4.4582008E-01
   7165.00  4.5170829E-01
   7166.00  4.5724812E-01
   7167.00  4.6233222E-01
   7168.00  4.6690407E-01
   7169.00  4.7095346E-01
   7170.00  4.7451253E-01
   7171.00  4.7764925E-01
   7172.00  4.8045649E-01
   7173.00  4.8303706E-01
   7174.00  4.8548788E-01
   7175.00  4.8788690E-01
   7176.00  4.9028589E-01
   7177.00  4.9271065E-01
   7178.00  4.9516739E-01
   7179.00  4.9765162E-01
   7180.00  5.0015547E-01
   7181.00  5.0267179E-01
   7182.00  5.0519613E-01
   7183.00  5.0772906E-01
   7184.00  5.1027907E-01
   7185.00  5.1286452E-01
   7186.00  5.1551228E-01
   7187.00  5.1825240E-01
   7188.00  5.2111055E-01
   7189.00  5.2410118E-01
   7190.00  5.2722372E-01
   7191.00  5.3046192E-01
   7192.00  5.3378451E-01
   7193.00  5.3714526E-01
   7194.00  5.4048276E-01
   7195.00  5.4372250E-01
   7196.00  5.4678333E-01
   7197.00  5.4958699E-01
   7198.00  5.5206639E-01
   7199.00  5.5416852E-01
   7200.00  5.5585157E-01
   7201.00  5.5708042E-01
   7202.00  5.5782554E-01
   7203.00  5.5806769E-01
   7204.00  5.5780653E-01
   7205.00  5.5706850E-01
   7206.00  5.5590954E-01
   7207.00  5.5441119E-01
   7208.00  5.5267168E-01
   7209.00  5.5079518E-01
   7210.00  5.4888193E-01
   7211.00  5.4702012E-01
   7212.00  5.4527942E-01
