    Energy    <xanes>    
   7072.00  5.3609300E-04
   7072.50  5.4258135E-04
   7073.00  5.4921864E-04
   7073.50  5.5601001E-04
   7074.00  5.6296086E-04
   7074.50  5.7007681E-04
   7075.00  5.7736377E-04
   7075.50  5.8482793E-04
   7076.00  5.9247577E-04
   7076.50  6.0031411E-04
   7077.00  6.0835009E-04
   7077.50  6.1659121E-04
   7078.00  6.2504535E-04
   7078.50  6.3372083E-04
   7079.00  6.4262635E-04
   7079.50  6.5177112E-04
   7080.00  6.6116482E-04
   7080.50  6.7081765E-04
   7081.00  6.8074039E-04
   7081.50  6.9094442E-04
   7082.00  7.0144174E-04
   7082.50  7.1224508E-04
   7083.00  7.2336787E-04
   7083.50  7.3482437E-04
   7084.00  7.4662965E-04
   7084.50  7.5879974E-04
   7085.00  7.7135164E-04
   7085.50  7.8430341E-04
   7086.00  7.9767427E-04
   7086.50  8.1148468E-04
   7087.00  8.2575643E-04
   7087.50  8.4051278E-04
   7088.00  8.5577857E-04
   7088.50  8.7158034E-04
   7089.00  8.8794649E-04
   7089.50  9.0490746E-04
   7090.00  9.2249590E-04
   7090.50  9.4074686E-04
   7091.00  9.5969804E-04
   7091.50  9.7939004E-04
   7092.00  9.9986660E-04
   7092.50  1.0211750E-03
   7093.00  1.0433663E-03
   7093.50  1.0664958E-03
   7094.00  1.0906236E-03
   7094.50  1.1158148E-03
   7095.00  1.1421404E-03
   7095.50  1.1696777E-03
   7096.00  1.1985113E-03
   7096.50  1.2287336E-03
   7097.00  1.2604459E-03
   7097.50  1.2937599E-03
   7098.00  1.3287982E-03
   7098.50  1.3656964E-03
   7099.00  1.4046046E-03
   7099.50  1.4456893E-03
   7100.00  1.4891360E-03
   7100.50  1.5351515E-03
   7101.00  1.5839677E-03
   7101.50  1.6358449E-03
   7102.00  1.6910767E-03
   7102.50  1.7499954E-03
   7103.00  1.8129789E-03
   7103.50  1.8804585E-03
   7104.00  1.9529290E-03
   7104.50  2.0309610E-03
   7105.00  2.1152166E-03
   7105.50  2.2064684E-03
   7106.00  2.3056252E-03
   7106.50  2.4137642E-03
   7107.00  2.5321743E-03
   7107.10  2.5574102E-03
   7107.20  2.5829517E-03
   7107.30  2.6088088E-03
   7107.40  2.6349914E-03
   7107.50  2.6624151E-03
   7107.60  2.6902606E-03
   7107.70  2.7184652E-03
   7107.80  2.7470412E-03
   7107.90  2.7760014E-03
   7108.00  2.8063993E-03
   7108.10  2.8372946E-03
   7108.20  2.8686170E-03
   7108.30  2.9003822E-03
   7108.40  2.9326068E-03
   7108.50  2.9665134E-03
   7108.60  3.0010150E-03
   7108.70  3.0360322E-03
   7108.80  3.0715862E-03
   7108.90  3.1076994E-03
   7108.91  3.1104883E-03
   7109.01  3.1481063E-03
   7109.11  3.1866495E-03
   7109.21  3.2261562E-03
   7109.31  3.2666673E-03
   7109.41  3.3082268E-03
   7109.51  3.3508820E-03
   7109.61  3.3946837E-03
   7109.71  3.4396873E-03
   7109.81  3.4859531E-03
   7109.91  3.5335469E-03
   7110.01  3.5825412E-03
   7110.11  3.6330165E-03
   7110.21  3.6850622E-03
   7110.31  3.7387789E-03
   7110.41  3.7942807E-03
   7110.51  3.8516974E-03
   7110.61  3.9111791E-03
   7110.71  3.9728995E-03
   7110.81  4.0370622E-03
   7110.91  4.1039061E-03
   7111.01  4.1737124E-03
   7111.11  4.2468089E-03
   7111.21  4.3235705E-03
   7111.31  4.4044051E-03
   7111.41  4.4897142E-03
   7111.51  4.5798037E-03
   7111.61  4.6747257E-03
   7111.71  4.7740581E-03
   7111.81  4.8767142E-03
   7111.91  4.9809965E-03
   7112.01  5.0852073E-03
   7112.11  5.1883573E-03
   7112.21  5.2904425E-03
   7112.31  5.3926598E-03
   7112.41  5.4968730E-03
   7112.51  5.6050114E-03
   7112.61  5.7187308E-03
   7112.71  5.8393543E-03
   7112.81  5.9679652E-03
   7112.91  6.1055369E-03
   7113.01  6.2530443E-03
   7113.11  6.4115412E-03
   7113.21  6.5822010E-03
   7113.31  6.7663095E-03
   7113.41  6.9651861E-03
   7113.51  7.1799909E-03
   7113.61  7.4113858E-03
   7113.71  7.6590906E-03
   7113.81  7.9215325E-03
   7113.91  8.1960030E-03
   7114.01  8.4794844E-03
   7114.11  8.7692861E-03
   7114.21  9.0643959E-03
   7114.31  9.3662679E-03
   7114.41  9.6790510E-03
   7114.51  1.0009106E-02
   7114.61  1.0363900E-02
   7114.71  1.0750822E-02
   7114.81  1.1176484E-02
   7114.91  1.1646644E-02
   7115.01  1.2166508E-02
   7115.11  1.2741147E-02
   7115.21  1.3375892E-02
   7115.31  1.4076688E-02
   7115.41  1.4850347E-02
   7115.51  1.5704656E-02
   7115.61  1.6648193E-02
   7115.71  1.7689793E-02
   7115.81  1.8837662E-02
   7115.91  2.0098243E-02
   7116.01  2.1474970E-02
   7116.11  2.2967105E-02
   7116.21  2.4568873E-02
   7116.31  2.6269193E-02
   7116.41  2.8052250E-02
   7116.51  2.9899032E-02
   7116.61  3.1789783E-02
   7116.71  3.3706987E-02
   7116.81  3.5638193E-02
   7116.91  3.7577754E-02
   7117.01  3.9526122E-02
   7117.11  4.1483659E-02
   7117.21  4.3476711E-02
   7117.31  4.5487647E-02
   7117.41  4.7536060E-02
   7117.51  4.9601498E-02
   7117.61  5.1715829E-02
   7117.71  5.3824328E-02
   7117.81  5.6002177E-02
   7117.91  5.8162370E-02
   7118.01  6.0413702E-02
   7118.11  6.2668460E-02
   7118.21  6.5028380E-02
   7118.31  6.7427430E-02
   7118.41  6.9929435E-02
   7118.51  7.2484439E-02
   7118.61  7.5119383E-02
   7118.71  7.7784777E-02
   7118.81  8.0488200E-02
   7118.91  8.3184556E-02
   7119.11  8.8509453E-02
   7119.31  9.3603306E-02
   7119.51  9.8377351E-02
   7119.71  1.0287187E-01
   7119.91  1.0725444E-01
   7120.11  1.1173490E-01
   7120.31  1.1648386E-01
   7120.51  1.2159811E-01
   7120.71  1.2709003E-01
   7120.91  1.3288083E-01
   7121.11  1.3881210E-01
   7121.31  1.4470123E-01
   7121.51  1.5041026E-01
   7121.71  1.5586292E-01
   7121.91  1.6100341E-01
   7122.11  1.6574968E-01
   7122.31  1.6998532E-01
   7122.51  1.7359296E-01
   7122.71  1.7649996E-01
   7122.91  1.7869975E-01
   7123.11  1.8022960E-01
   7123.31  1.8112476E-01
   7123.51  1.8139436E-01
   7123.71  1.8103949E-01
   7123.91  1.8009167E-01
   7124.11  1.7863582E-01
   7124.31  1.7679889E-01
   7124.51  1.7471552E-01
   7124.71  1.7249710E-01
   7124.91  1.7022109E-01
   7125.11  1.6793934E-01
   7125.31  1.6569283E-01
   7125.51  1.6351957E-01
   7125.71  1.6145039E-01
   7125.91  1.5949785E-01
   7126.11  1.5764838E-01
   7126.31  1.5586519E-01
   7126.51  1.5410204E-01
   7126.71  1.5232100E-01
   7126.91  1.5050561E-01
   7127.11  1.4866409E-01
   7127.31  1.4682306E-01
   7127.51  1.4501676E-01
   7127.71  1.4327695E-01
   7127.91  1.4162702E-01
   7128.11  1.4008035E-01
   7128.31  1.3864176E-01
   7128.51  1.3731003E-01
   7128.71  1.3608000E-01
   7128.91  1.3494397E-01
   7129.11  1.3389229E-01
   7129.31  1.3291377E-01
   7129.51  1.3199603E-01
   7129.71  1.3112609E-01
   7129.91  1.3029108E-01
   7130.11  1.2947909E-01
   7130.31  1.2868005E-01
   7130.51  1.2788648E-01
   7130.71  1.2709386E-01
   7130.91  1.2630077E-01
   7131.11  1.2550840E-01
   7131.31  1.2472002E-01
   7131.51  1.2394010E-01
   7131.71  1.2317357E-01
   7131.91  1.2242515E-01
   7132.11  1.2171504E-01
   7132.31  1.2103371E-01
   7132.51  1.2036309E-01
   7132.71  1.1970896E-01
   7132.91  1.1907597E-01
   7133.11  1.1847886E-01
   7133.31  1.1791880E-01
   7133.51  1.1738821E-01
   7133.71  1.1688837E-01
   7133.91  1.1641996E-01
   7134.91  1.1440095E-01
   7135.91  1.1286229E-01
   7136.91  1.1161226E-01
   7137.91  1.1044063E-01
   7138.91  1.0922828E-01
   7139.91  1.0802509E-01
   7140.91  1.0697723E-01
   7141.91  1.0620988E-01
   7142.91  1.0578097E-01
   7143.91  1.0568754E-01
   7144.91  1.0588374E-01
   7145.91  1.0630271E-01
   7146.91  1.0687764E-01
   7147.91  1.0755972E-01
   7148.91  1.0833308E-01
   7149.91  1.0921765E-01
   7150.91  1.1025444E-01
   7151.91  1.1148124E-01
   7152.91  1.1291229E-01
   7153.91  1.1453013E-01
   7154.91  1.1629003E-01
   7155.91  1.1813107E-01
   7156.91  1.1998751E-01
   7157.91  1.2179706E-01
   7158.91  1.2350684E-01
   7159.91  1.2507848E-01
   7160.91  1.2649119E-01
   7161.91  1.2774040E-01
   7162.91  1.2883106E-01
   7163.91  1.2976850E-01
   7164.91  1.3055134E-01
   7165.91  1.3116966E-01
   7166.91  1.3160841E-01
   7167.91  1.3185370E-01
   7168.91  1.3189930E-01
   7169.91  1.3175120E-01
   7170.91  1.3142955E-01
   7171.91  1.3096768E-01
   7172.91  1.3040885E-01
   7173.91  1.2980122E-01
   7174.91  1.2919167E-01
   7175.91  1.2861931E-01
   7176.91  1.2811005E-01
   7177.91  1.2767389E-01
   7178.91  1.2730579E-01
   7179.91  1.2699008E-01
   7180.91  1.2670687E-01
   7181.91  1.2643863E-01
   7182.91  1.2617511E-01
   7183.91  1.2591580E-01
   7184.91  1.2566964E-01
   7185.91  1.2545206E-01
   7186.91  1.2528027E-01
   7187.91  1.2516807E-01
   7188.91  1.2512183E-01
   7189.91  1.2513840E-01
   7190.91  1.2520527E-01
   7191.91  1.2530275E-01
   7192.91  1.2540773E-01
   7193.91  1.2549817E-01
   7194.91  1.2555680E-01
   7195.91  1.2557286E-01
   7196.91  1.2554187E-01
   7197.91  1.2546397E-01
   7198.91  1.2534236E-01
   7199.91  1.2518261E-01
   7200.91  1.2499311E-01
   7201.91  1.2478585E-01
   7202.91  1.2457663E-01
   7203.91  1.2438419E-01
   7204.91  1.2422811E-01
   7205.91  1.2412600E-01
   7206.91  1.2409051E-01
   7207.91  1.2412698E-01
   7208.91  1.2423232E-01
   7209.91  1.2439559E-01
   7210.91  1.2460031E-01
   7211.91  1.2482781E-01
