    Energy    <xanes>    
   7072.00  2.6647287E-04
   7072.50  2.6952288E-04
   7073.00  2.7263925E-04
   7073.50  2.7582416E-04
   7074.00  2.7907988E-04
   7074.50  2.8240879E-04
   7075.00  2.8581338E-04
   7075.50  2.8929623E-04
   7076.00  2.9286007E-04
   7076.50  2.9650773E-04
   7077.00  3.0024221E-04
   7077.50  3.0406661E-04
   7078.00  3.0798420E-04
   7078.50  3.1199843E-04
   7079.00  3.1611290E-04
   7079.50  3.2033138E-04
   7080.00  3.2465785E-04
   7080.50  3.2909650E-04
   7081.00  3.3365172E-04
   7081.50  3.3832815E-04
   7082.00  3.4313068E-04
   7082.50  3.4806444E-04
   7083.00  3.5313488E-04
   7083.50  3.5834772E-04
   7084.00  3.6370903E-04
   7084.50  3.6922523E-04
   7085.00  3.7490310E-04
   7085.50  3.8074983E-04
   7086.00  3.8677305E-04
   7086.50  3.9298085E-04
   7087.00  3.9938183E-04
   7087.50  4.0598514E-04
   7088.00  4.1280049E-04
   7088.50  4.1983827E-04
   7089.00  4.2710954E-04
   7089.50  4.3462611E-04
   7090.00  4.4240061E-04
   7090.50  4.5044656E-04
   7091.00  4.5877847E-04
   7091.50  4.6741188E-04
   7092.00  4.7636353E-04
   7092.50  4.8565143E-04
   7093.00  4.9529498E-04
   7093.50  5.0531514E-04
   7094.00  5.1573462E-04
   7094.50  5.2657798E-04
   7095.00  5.3787194E-04
   7095.50  5.4964555E-04
   7096.00  5.6193051E-04
   7096.50  5.7476148E-04
   7097.00  5.8817646E-04
   7097.50  6.0221719E-04
   7098.00  6.1692975E-04
   7098.50  6.3236506E-04
   7099.00  6.4857970E-04
   7099.50  6.6563672E-04
   7100.00  6.8360669E-04
   7100.50  7.0256906E-04
   7101.00  7.2261365E-04
   7101.50  7.4384275E-04
   7102.00  7.6637357E-04
   7102.50  7.9034155E-04
   7103.00  8.1590463E-04
   7103.50  8.4324888E-04
   7104.00  8.7259632E-04
   7104.50  9.0421560E-04
   7105.00  9.3843736E-04
   7105.50  9.7567671E-04
   7106.00  1.0164672E-03
   7106.50  1.0615142E-03
   7107.00  1.1117812E-03
   7107.10  1.1225720E-03
   7107.20  1.1336379E-03
   7107.30  1.1449934E-03
   7107.40  1.1566544E-03
   7107.50  1.1686383E-03
   7107.60  1.1809639E-03
   7107.70  1.1936518E-03
   7107.80  1.2067247E-03
   7107.90  1.2202074E-03
   7108.00  1.2341272E-03
   7108.10  1.2485145E-03
   7108.20  1.2634027E-03
   7108.30  1.2788291E-03
   7108.40  1.2948352E-03
   7108.50  1.3114674E-03
   7108.60  1.3287778E-03
   7108.70  1.3468248E-03
   7108.80  1.3656748E-03
   7108.90  1.3854026E-03
   7109.00  1.4060936E-03
   7109.10  1.4278454E-03
   7109.20  1.4507697E-03
   7109.30  1.4749954E-03
   7109.40  1.5006717E-03
   7109.50  1.5279720E-03
   7109.60  1.5570990E-03
   7109.70  1.5882908E-03
   7109.80  1.6218284E-03
   7109.90  1.6580456E-03
   7110.00  1.6973409E-03
   7110.10  1.7401929E-03
   7110.20  1.7871799E-03
   7110.30  1.8390048E-03
   7110.40  1.8965270E-03
   7110.50  1.9608035E-03
   7110.60  2.0331411E-03
   7110.70  2.1151620E-03
   7110.80  2.2088862E-03
   7110.90  2.3168298E-03
   7111.00  2.4421141E-03
   7111.10  2.5885698E-03
   7111.20  2.7607914E-03
   7111.30  2.9640460E-03
   7111.40  3.2038458E-03
   7111.50  3.4848514E-03
   7111.60  3.8086431E-03
   7111.70  4.1700247E-03
   7111.80  4.5524545E-03
   7111.90  4.9253863E-03
   7112.00  5.2484551E-03
   7112.10  5.4851460E-03
   7112.20  5.6199705E-03
   7112.30  5.6650965E-03
   7112.40  5.6499223E-03
   7112.50  5.6026289E-03
   7112.60  5.5368921E-03
   7112.70  5.4496279E-03
   7112.80  5.3285041E-03
   7112.90  5.1640033E-03
   7113.00  4.9584438E-03
   7113.10  4.7263973E-03
   7113.20  4.4879041E-03
   7113.30  4.2607601E-03
   7113.40  4.0564510E-03
   7113.50  3.8799942E-03
   7113.60  3.7317561E-03
   7113.70  3.6095490E-03
   7113.80  3.5102459E-03
   7113.90  3.4307691E-03
   7114.00  3.3685412E-03
   7114.10  3.3215559E-03
   7114.20  3.2882587E-03
   7114.30  3.2673996E-03
   7114.40  3.2579336E-03
   7114.50  3.2589741E-03
   7114.60  3.2697774E-03
   7114.70  3.2897368E-03
   7114.80  3.3183798E-03
   7114.90  3.3553649E-03
   7115.00  3.4004780E-03
   7115.10  3.4536306E-03
   7115.20  3.5148583E-03
   7115.30  3.5843173E-03
   7115.40  3.6622746E-03
   7115.50  3.7490856E-03
   7115.60  3.8451477E-03
   7115.70  3.9508178E-03
   7115.80  4.0662823E-03
   7115.90  4.1913837E-03
   7116.00  4.3254579E-03
   7116.10  4.4673079E-03
   7116.20  4.6154835E-03
   7116.30  4.7689267E-03
   7116.40  4.9277419E-03
   7116.50  5.0936141E-03
   7116.60  5.2695673E-03
   7116.70  5.4592318E-03
   7116.80  5.6660780E-03
   7116.90  5.8929351E-03
   7117.00  6.1418294E-03
   7117.20  6.7101632E-03
   7117.40  7.3748784E-03
   7117.60  8.1355395E-03
   7117.80  8.9892581E-03
   7118.00  9.9279918E-03
   7118.20  1.0942359E-02
   7118.40  1.2036034E-02
   7118.60  1.3234754E-02
   7118.80  1.4577602E-02
   7119.00  1.6099698E-02
   7119.20  1.7819185E-02
   7119.40  1.9728645E-02
   7119.60  2.1784718E-02
   7119.80  2.3898708E-02
   7120.00  2.5947543E-02
   7120.20  2.7819052E-02
   7120.40  2.9466097E-02
   7120.60  3.0924530E-02
   7120.80  3.2285381E-02
   7121.00  3.3650800E-02
   7121.20  3.5103378E-02
   7121.40  3.6695629E-02
   7121.60  3.8448701E-02
   7121.80  4.0350783E-02
   7122.00  4.2358645E-02
   7122.20  4.4410511E-02
   7122.40  4.6450506E-02
   7122.60  4.8454396E-02
   7122.80  5.0442385E-02
   7123.00  5.2470314E-02
   7123.20  5.4603189E-02
   7123.40  5.6886154E-02
   7123.60  5.9328506E-02
   7123.80  6.1906433E-02
   7124.00  6.4578158E-02
   7124.20  6.7299559E-02
   7124.40  7.0031599E-02
   7124.60  7.2738824E-02
   7124.80  7.5383961E-02
   7125.00  7.7924101E-02
   7125.20  8.0311094E-02
   7125.40  8.2495373E-02
   7125.60  8.4430485E-02
   7125.80  8.6076009E-02
   7126.00  8.7398578E-02
   7126.20  8.8372521E-02
   7126.40  8.8981805E-02
   7126.60  8.9223595E-02
   7126.80  8.9112080E-02
   7127.00  8.8680362E-02
   7127.20  8.7978759E-02
   7127.40  8.7069445E-02
   7127.60  8.6018855E-02
   7127.80  8.4890025E-02
   7128.00  8.3736670E-02
   7128.20  8.2599937E-02
   7128.40  8.1507826E-02
   7128.60  8.0476675E-02
   7128.80  7.9513853E-02
   7129.00  7.8620808E-02
   7129.20  7.7795789E-02
   7129.40  7.7035856E-02
   7129.60  7.6338041E-02
   7129.80  7.5699792E-02
   7130.00  7.5118916E-02
   7130.20  7.4593278E-02
   7130.40  7.4120446E-02
   7130.60  7.3697408E-02
   7130.80  7.3320404E-02
   7131.00  7.2984896E-02
   7131.20  7.2685661E-02
   7131.40  7.2416983E-02
   7131.60  7.2172913E-02
   7131.80  7.1947575E-02
   7132.00  7.1735466E-02
   7133.00  7.0736323E-02
   7134.00  6.9726665E-02
   7135.00  6.8759153E-02
   7136.00  6.7807420E-02
   7137.00  6.6795168E-02
   7138.00  6.5760215E-02
   7139.00  6.4812514E-02
   7140.00  6.4011806E-02
   7141.00  6.3329744E-02
   7142.00  6.2685357E-02
   7143.00  6.1995229E-02
   7144.00  6.1208494E-02
   7145.00  6.0312732E-02
   7146.00  5.9320934E-02
   7147.00  5.8262421E-02
   7148.00  5.7179311E-02
   7149.00  5.6118209E-02
   7150.00  5.5119401E-02
   7151.00  5.4213657E-02
   7152.00  5.3427806E-02
   7153.00  5.2790669E-02
   7154.00  5.2333291E-02
   7155.00  5.2084128E-02
   7156.00  5.2062105E-02
   7157.00  5.2270297E-02
   7158.00  5.2693122E-02
   7159.00  5.3298858E-02
   7160.00  5.4046698E-02
   7161.00  5.4895527E-02
   7162.00  5.5811190E-02
   7163.00  5.6769482E-02
   7164.00  5.7753979E-02
   7165.00  5.8750856E-02
   7166.00  5.9744474E-02
   7167.00  6.0716010E-02
   7168.00  6.1644775E-02
   7169.00  6.2510628E-02
   7170.00  6.3296340E-02
   7171.00  6.3989569E-02
   7172.00  6.4584142E-02
   7173.00  6.5080247E-02
   7174.00  6.5483209E-02
   7175.00  6.5801104E-02
   7176.00  6.6042027E-02
   7177.00  6.6212323E-02
   7178.00  6.6316952E-02
   7179.00  6.6362123E-02
   7180.00  6.6358798E-02
   7181.00  6.6324780E-02
   7182.00  6.6283762E-02
   7183.00  6.6261477E-02
   7184.00  6.6280632E-02
   7185.00  6.6356613E-02
   7186.00  6.6495023E-02
   7187.00  6.6691118E-02
   7188.00  6.6930756E-02
   7189.00  6.7192550E-02
   7190.00  6.7451051E-02
   7191.00  6.7680790E-02
   7192.00  6.7860619E-02
   7193.00  6.7977323E-02
   7194.00  6.8027279E-02
   7195.00  6.8015525E-02
   7196.00  6.7952812E-02
   7197.00  6.7852117E-02
   7198.00  6.7726120E-02
   7199.00  6.7586323E-02
   7200.00  6.7443366E-02
   7201.00  6.7307623E-02
   7202.00  6.7189277E-02
   7203.00  6.7097701E-02
   7204.00  6.7040450E-02
   7205.00  6.7022317E-02
   7206.00  6.7044736E-02
   7207.00  6.7105629E-02
   7208.00  6.7199696E-02
   7209.00  6.7319135E-02
   7210.00  6.7454750E-02
   7211.00  6.7597253E-02
   7212.00  6.7738509E-02
