    Energy    <xanes>    
   7072.00  2.5926606E-04
   7072.50  2.6238045E-04
   7073.00  2.6556480E-04
   7073.50  2.6882147E-04
   7074.00  2.7215290E-04
   7074.50  2.7556166E-04
   7075.00  2.7905044E-04
   7075.50  2.8262204E-04
   7076.00  2.8627941E-04
   7076.50  2.9002562E-04
   7077.00  2.9386390E-04
   7077.50  2.9779763E-04
   7078.00  3.0183037E-04
   7078.50  3.0596585E-04
   7079.00  3.1020797E-04
   7079.50  3.1456085E-04
   7080.00  3.1902883E-04
   7080.50  3.2361645E-04
   7081.00  3.2832850E-04
   7081.50  3.3317006E-04
   7082.00  3.3814642E-04
   7082.50  3.4326323E-04
   7083.00  3.4852641E-04
   7083.50  3.5394224E-04
   7084.00  3.5951734E-04
   7084.50  3.6525873E-04
   7085.00  3.7117384E-04
   7085.50  3.7727055E-04
   7086.00  3.8355721E-04
   7086.50  3.9004269E-04
   7087.00  3.9673642E-04
   7087.50  4.0364841E-04
   7088.00  4.1078935E-04
   7088.50  4.1817061E-04
   7089.00  4.2580432E-04
   7089.50  4.3370343E-04
   7090.00  4.4188179E-04
   7090.50  4.5035423E-04
   7091.00  4.5913661E-04
   7091.50  4.6824596E-04
   7092.00  4.7770058E-04
   7092.50  4.8752013E-04
   7093.00  4.9772579E-04
   7093.50  5.0834038E-04
   7094.00  5.1938855E-04
   7094.50  5.3089697E-04
   7095.00  5.4289449E-04
   7095.50  5.5541243E-04
   7096.00  5.6848481E-04
   7096.50  5.8214867E-04
   7097.00  5.9644438E-04
   7097.50  6.1141607E-04
   7098.00  6.2711204E-04
   7098.50  6.4358527E-04
   7099.00  6.6089403E-04
   7099.50  6.7910251E-04
   7100.00  6.9828166E-04
   7100.50  7.1851004E-04
   7101.00  7.3987495E-04
   7101.50  7.6247361E-04
   7102.00  7.8641469E-04
   7102.50  8.1182007E-04
   7103.00  8.3882687E-04
   7103.50  8.6759006E-04
   7104.00  8.9828547E-04
   7104.50  9.3111354E-04
   7105.00  9.6630394E-04
   7105.50  1.0041214E-03
   7106.00  1.0448728E-03
   7106.50  1.0889170E-03
   7107.00  1.1366768E-03
   7107.10  1.1467173E-03
   7107.20  1.1569307E-03
   7107.30  1.1673217E-03
   7107.40  1.1778951E-03
   7107.50  1.1886559E-03
   7107.60  1.1996094E-03
   7107.70  1.2107610E-03
   7107.80  1.2221164E-03
   7107.90  1.2336815E-03
   7108.00  1.2454625E-03
   7108.10  1.2574658E-03
   7108.20  1.2696984E-03
   7108.30  1.2821671E-03
   7108.40  1.2948795E-03
   7108.50  1.3078435E-03
   7108.60  1.3210671E-03
   7108.70  1.3345591E-03
   7108.80  1.3483287E-03
   7108.90  1.3623855E-03
   7109.00  1.3767398E-03
   7109.10  1.3914025E-03
   7109.20  1.4063852E-03
   7109.30  1.4217003E-03
   7109.40  1.4373612E-03
   7109.50  1.4533822E-03
   7109.60  1.4697788E-03
   7109.70  1.4865679E-03
   7109.80  1.5037679E-03
   7109.90  1.5213989E-03
   7110.00  1.5394832E-03
   7110.10  1.5580457E-03
   7110.20  1.5771141E-03
   7110.30  1.5967200E-03
   7110.40  1.6168991E-03
   7110.50  1.6376926E-03
   7110.60  1.6591486E-03
   7110.70  1.6813230E-03
   7110.80  1.7042821E-03
   7110.90  1.7281048E-03
   7111.00  1.7528849E-03
   7111.10  1.7787342E-03
   7111.20  1.8057835E-03
   7111.30  1.8341821E-03
   7111.40  1.8640886E-03
   7111.50  1.8956498E-03
   7111.60  1.9289552E-03
   7111.70  1.9639625E-03
   7111.80  2.0004080E-03
   7111.90  2.0377529E-03
   7112.00  2.0752769E-03
   7112.10  2.1124879E-03
   7112.20  2.1490122E-03
   7112.30  2.1848308E-03
   7112.40  2.2202653E-03
   7112.50  2.2558062E-03
   7112.60  2.2919640E-03
   7112.70  2.3291915E-03
   7112.80  2.3678643E-03
   7112.90  2.4082917E-03
   7113.00  2.4507354E-03
   7113.10  2.4954239E-03
   7113.20  2.5425635E-03
   7113.30  2.5923460E-03
   7113.40  2.6449558E-03
   7113.50  2.7005771E-03
   7113.60  2.7594004E-03
   7113.70  2.8216286E-03
   7113.80  2.8874820E-03
   7113.90  2.9572029E-03
   7114.00  3.0310607E-03
   7114.10  3.1093587E-03
   7114.20  3.1924412E-03
   7114.30  3.2807007E-03
   7114.40  3.3745849E-03
   7114.50  3.4746012E-03
   7114.60  3.5813205E-03
   7114.70  3.6953772E-03
   7114.80  3.8174661E-03
   7114.90  3.9483311E-03
   7115.00  4.0887474E-03
   7115.10  4.2394908E-03
   7115.20  4.4012890E-03
   7115.30  4.5747426E-03
   7115.40  4.7602145E-03
   7115.50  4.9577147E-03
   7115.60  5.1668587E-03
   7115.70  5.3870141E-03
   7115.80  5.6177111E-03
   7115.90  5.8592313E-03
   7116.00  6.1131169E-03
   7116.10  6.3823181E-03
   7116.20  6.6708893E-03
   7116.30  6.9834018E-03
   7116.40  7.3243705E-03
   7116.50  7.6979003E-03
   7116.60  8.1075758E-03
   7116.70  8.5565043E-03
   7116.80  9.0474200E-03
   7116.90  9.5827832E-03
   7117.00  1.0164823E-02
   7117.20  1.1476050E-02
   7117.40  1.2986862E-02
   7117.60  1.4677794E-02
   7117.80  1.6496186E-02
   7118.00  1.8379728E-02
   7118.20  2.0303565E-02
   7118.40  2.2297532E-02
   7118.60  2.4403259E-02
   7118.80  2.6612625E-02
   7119.00  2.8844497E-02
   7119.20  3.0976185E-02
   7119.40  3.2903172E-02
   7119.60  3.4573456E-02
   7119.80  3.5971532E-02
   7120.00  3.7098681E-02
   7120.20  3.7992065E-02
   7120.40  3.8747734E-02
   7120.60  3.9502004E-02
   7120.80  4.0382906E-02
   7121.00  4.1470907E-02
   7121.20  4.2791936E-02
   7121.40  4.4340255E-02
   7121.60  4.6113576E-02
   7121.80  4.8139242E-02
   7122.00  5.0475316E-02
   7122.20  5.3184825E-02
   7122.40  5.6298808E-02
   7122.60  5.9789904E-02
   7122.80  6.3569690E-02
   7123.00  6.7509592E-02
   7123.20  7.1473899E-02
   7123.40  7.5346937E-02
   7123.60  7.9040859E-02
   7123.80  8.2485529E-02
   7124.00  8.5614592E-02
   7124.20  8.8361371E-02
   7124.40  9.0667615E-02
   7124.60  9.2498098E-02
   7124.80  9.3851188E-02
   7125.00  9.4759652E-02
   7125.20  9.5282179E-02
   7125.40  9.5489801E-02
   7125.60  9.5452185E-02
   7125.80  9.5228008E-02
   7126.00  9.4861354E-02
   7126.20  9.4383071E-02
   7126.40  9.3814286E-02
   7126.60  9.3169771E-02
   7126.80  9.2460196E-02
   7127.00  9.1693257E-02
   7127.20  9.0873984E-02
   7127.40  9.0004624E-02
   7127.60  8.9084613E-02
   7127.80  8.8111084E-02
   7128.00  8.7080107E-02
   7128.20  8.5988439E-02
   7128.40  8.4835310E-02
   7128.60  8.3623721E-02
   7128.80  8.2360962E-02
   7129.00  8.1058316E-02
   7129.20  7.9730167E-02
   7129.40  7.8392790E-02
   7129.60  7.7063082E-02
   7129.80  7.5757411E-02
   7130.00  7.4490681E-02
   7130.20  7.3275632E-02
   7130.40  7.2122415E-02
   7130.60  7.1038408E-02
   7130.80  7.0028246E-02
   7131.00  6.9094035E-02
   7131.20  6.8235685E-02
   7131.40  6.7451315E-02
   7131.60  6.6737688E-02
   7131.80  6.6090634E-02
   7132.00  6.5505429E-02
   7133.00  6.3338892E-02
   7134.00  6.2081540E-02
   7135.00  6.1421106E-02
   7136.00  6.1203605E-02
   7137.00  6.1365115E-02
   7138.00  6.1802090E-02
   7139.00  6.2275341E-02
   7140.00  6.2477546E-02
   7141.00  6.2186162E-02
   7142.00  6.1346611E-02
   7143.00  6.0040419E-02
   7144.00  5.8411699E-02
   7145.00  5.6617223E-02
   7146.00  5.4804959E-02
   7147.00  5.3105708E-02
   7148.00  5.1625685E-02
   7149.00  5.0438316E-02
   7150.00  4.9583806E-02
   7151.00  4.9078465E-02
   7152.00  4.8924018E-02
   7153.00  4.9109567E-02
   7154.00  4.9609303E-02
   7155.00  5.0382614E-02
   7156.00  5.1378559E-02
   7157.00  5.2542018E-02
   7158.00  5.3818500E-02
   7159.00  5.5156873E-02
   7160.00  5.6511319E-02
   7161.00  5.7843857E-02
   7162.00  5.9126849E-02
   7163.00  6.0343285E-02
   7164.00  6.1483660E-02
   7165.00  6.2541118E-02
   7166.00  6.3507667E-02
   7167.00  6.4372603E-02
   7168.00  6.5122557E-02
   7169.00  6.5742601E-02
   7170.00  6.6218491E-02
   7171.00  6.6539964E-02
   7172.00  6.6704382E-02
   7173.00  6.6719790E-02
   7174.00  6.6606444E-02
   7175.00  6.6395831E-02
   7176.00  6.6126645E-02
   7177.00  6.5838446E-02
   7178.00  6.5565112E-02
   7179.00  6.5330382E-02
   7180.00  6.5146571E-02
   7181.00  6.5015914E-02
   7182.00  6.4933213E-02
   7183.00  6.4888637E-02
   7184.00  6.4870211E-02
   7185.00  6.4866056E-02
   7186.00  6.4866502E-02
   7187.00  6.4865837E-02
   7188.00  6.4863190E-02
   7189.00  6.4862077E-02
   7190.00  6.4868600E-02
   7191.00  6.4888727E-02
   7192.00  6.4925457E-02
   7193.00  6.4976713E-02
   7194.00  6.5034555E-02
   7195.00  6.5085849E-02
   7196.00  6.5114159E-02
   7197.00  6.5102452E-02
   7198.00  6.5036060E-02
   7199.00  6.4905199E-02
   7200.00  6.4706385E-02
   7201.00  6.4442466E-02
   7202.00  6.4121595E-02
   7203.00  6.3755745E-02
   7204.00  6.3359240E-02
   7205.00  6.2947417E-02
   7206.00  6.2535362E-02
   7207.00  6.2136687E-02
   7208.00  6.1762454E-02
   7209.00  6.1420426E-02
   7210.00  6.1114815E-02
   7211.00  6.0846589E-02
   7212.00  6.0614195E-02
