    Energy    <xanes>    
   7072.00  1.2601167E-04
   7072.50  1.2747394E-04
   7073.00  1.2896780E-04
   7073.50  1.3049428E-04
   7074.00  1.3205444E-04
   7074.50  1.3364939E-04
   7075.00  1.3528028E-04
   7075.50  1.3694832E-04
   7076.00  1.3865477E-04
   7076.50  1.4040096E-04
   7077.00  1.4218826E-04
   7077.50  1.4401812E-04
   7078.00  1.4589205E-04
   7078.50  1.4781164E-04
   7079.00  1.4977854E-04
   7079.50  1.5179450E-04
   7080.00  1.5386134E-04
   7080.50  1.5598098E-04
   7081.00  1.5815543E-04
   7081.50  1.6038682E-04
   7082.00  1.6267736E-04
   7082.50  1.6502941E-04
   7083.00  1.6744542E-04
   7083.50  1.6992799E-04
   7084.00  1.7247988E-04
   7084.50  1.7510396E-04
   7085.00  1.7780330E-04
   7085.50  1.8058111E-04
   7086.00  1.8344082E-04
   7086.50  1.8638603E-04
   7087.00  1.8942056E-04
   7087.50  1.9254847E-04
   7088.00  1.9577406E-04
   7088.50  1.9910190E-04
   7089.00  2.0253684E-04
   7089.50  2.0608404E-04
   7090.00  2.0974900E-04
   7090.50  2.1353757E-04
   7091.00  2.1745601E-04
   7091.50  2.2151099E-04
   7092.00  2.2570966E-04
   7092.50  2.3005965E-04
   7093.00  2.3456915E-04
   7093.50  2.3924695E-04
   7094.00  2.4410250E-04
   7094.50  2.4914596E-04
   7095.00  2.5438826E-04
   7095.50  2.5984123E-04
   7096.00  2.6551762E-04
   7096.50  2.7143124E-04
   7097.00  2.7759708E-04
   7097.50  2.8403139E-04
   7098.00  2.9075188E-04
   7098.50  2.9777784E-04
   7099.00  3.0513036E-04
   7099.50  3.1283252E-04
   7100.00  3.2090967E-04
   7100.50  3.2938970E-04
   7101.00  3.3830338E-04
   7101.50  3.4768477E-04
   7102.00  3.5757172E-04
   7102.50  3.6800639E-04
   7103.00  3.7903598E-04
   7103.50  3.9071356E-04
   7104.00  4.0309909E-04
   7104.50  4.1626078E-04
   7105.00  4.3027673E-04
   7105.50  4.4523719E-04
   7106.00  4.6124750E-04
   7106.50  4.7843233E-04
   7107.00  4.9694175E-04
   7107.10  5.0081810E-04
   7107.20  5.0475636E-04
   7107.30  5.0875828E-04
   7107.40  5.1282572E-04
   7107.50  5.1696064E-04
   7107.60  5.2116510E-04
   7107.70  5.2544127E-04
   7107.80  5.2979146E-04
   7107.90  5.3421812E-04
   7108.00  5.3872385E-04
   7108.10  5.4331143E-04
   7108.20  5.4798381E-04
   7108.30  5.5274418E-04
   7108.40  5.5759595E-04
   7108.50  5.6254281E-04
   7108.60  5.6758873E-04
   7108.70  5.7273805E-04
   7108.80  5.7799547E-04
   7108.90  5.8336614E-04
   7109.00  5.8885574E-04
   7109.10  5.9447050E-04
   7109.20  6.0021736E-04
   7109.30  6.0610402E-04
   7109.40  6.1213914E-04
   7109.50  6.1833245E-04
   7109.60  6.2469497E-04
   7109.70  6.3123927E-04
   7109.80  6.3797977E-04
   7109.90  6.4493310E-04
   7110.00  6.5211860E-04
   7110.10  6.5955892E-04
   7110.20  6.6728073E-04
   7110.30  6.7531574E-04
   7110.40  6.8370188E-04
   7110.50  6.9248485E-04
   7110.60  7.0172013E-04
   7110.70  7.1147548E-04
   7110.80  7.2183415E-04
   7110.90  7.3289875E-04
   7111.00  7.4479596E-04
   7111.10  7.5768164E-04
   7111.20  7.7174548E-04
   7111.30  7.8721318E-04
   7111.40  8.0434138E-04
   7111.50  8.2339719E-04
   7111.60  8.4460927E-04
   7111.70  8.6807683E-04
   7111.80  8.9363592E-04
   7111.90  9.2071926E-04
   7112.00  9.4830331E-04
   7112.10  9.7504052E-04
   7112.20  9.9932764E-04
   7112.30  1.0196598E-03
   7112.40  1.0349987E-03
   7112.50  1.0451682E-03
   7112.60  1.0510950E-03
   7112.70  1.0546008E-03
   7112.80  1.0577554E-03
   7112.90  1.0621814E-03
   7113.00  1.0686598E-03
   7113.10  1.0770793E-03
   7113.20  1.0866291E-03
   7113.30  1.0961893E-03
   7113.40  1.1048479E-03
   7113.50  1.1123153E-03
   7113.60  1.1189831E-03
   7113.70  1.1256355E-03
   7113.80  1.1330815E-03
   7113.90  1.1419321E-03
   7114.00  1.1525518E-03
   7114.10  1.1651017E-03
   7114.20  1.1796051E-03
   7114.30  1.1960022E-03
   7114.40  1.2141922E-03
   7114.50  1.2340657E-03
   7114.60  1.2555343E-03
   7114.70  1.2785524E-03
   7114.80  1.3031263E-03
   7114.90  1.3293062E-03
   7115.00  1.3571699E-03
   7115.10  1.3868081E-03
   7115.20  1.4183172E-03
   7115.30  1.4517994E-03
   7115.40  1.4873657E-03
   7115.50  1.5251397E-03
   7115.60  1.5652618E-03
   7115.70  1.6078923E-03
   7115.80  1.6532144E-03
   7115.90  1.7014371E-03
   7116.00  1.7527982E-03
   7116.10  1.8075675E-03
   7116.20  1.8660512E-03
   7116.30  1.9285973E-03
   7116.40  1.9956021E-03
   7116.50  2.0675184E-03
   7116.60  2.1448645E-03
   7116.70  2.2282329E-03
   7116.80  2.3183009E-03
   7116.90  2.4158401E-03
   7117.00  2.5217265E-03
   7117.20  2.7626180E-03
   7117.40  3.0503221E-03
   7117.60  3.3958556E-03
   7117.80  3.8106535E-03
   7118.00  4.3033853E-03
   7118.20  4.8745645E-03
   7118.40  5.5112419E-03
   7118.60  6.1869690E-03
   7118.80  6.8691279E-03
   7119.00  7.5271157E-03
   7119.20  8.1343776E-03
   7119.40  8.6666904E-03
   7119.60  9.1060689E-03
   7119.80  9.4527670E-03
   7120.00  9.7316474E-03
   7120.20  9.9826918E-03
   7120.40  1.0244818E-02
   7120.60  1.0545385E-02
   7120.80  1.0897747E-02
   7121.00  1.1303669E-02
   7121.20  1.1757852E-02
   7121.40  1.2253850E-02
   7121.60  1.2790334E-02
   7121.80  1.3374336E-02
   7122.00  1.4019077E-02
   7122.20  1.4738572E-02
   7122.40  1.5543321E-02
   7122.60  1.6439080E-02
   7122.80  1.7427405E-02
   7123.00  1.8506063E-02
   7123.20  1.9669134E-02
   7123.40  2.0907967E-02
   7123.60  2.2213560E-02
   7123.80  2.3579585E-02
   7124.00  2.5004621E-02
   7124.20  2.6492421E-02
   7124.40  2.8049832E-02
   7124.60  2.9682982E-02
   7124.80  3.1393018E-02
   7125.00  3.3172878E-02
   7125.20  3.5006147E-02
   7125.40  3.6868389E-02
   7125.60  3.8730480E-02
   7125.80  4.0562596E-02
   7126.00  4.2337136E-02
   7126.20  4.4029492E-02
   7126.40  4.5616975E-02
   7126.60  4.7077239E-02
   7126.80  4.8387454E-02
   7127.00  4.9524614E-02
   7127.20  5.0466599E-02
   7127.40  5.1193533E-02
   7127.60  5.1689296E-02
   7127.80  5.1943363E-02
   7128.00  5.1952883E-02
   7128.20  5.1724470E-02
   7128.40  5.1274888E-02
   7128.60  5.0630113E-02
   7128.80  4.9822882E-02
   7129.00  4.8889471E-02
   7129.20  4.7866581E-02
   7129.40  4.6788937E-02
   7129.60  4.5687791E-02
   7129.80  4.4590195E-02
   7130.00  4.3518780E-02
   7130.20  4.2491820E-02
   7130.40  4.1523449E-02
   7130.60  4.0623974E-02
   7130.80  3.9800237E-02
   7131.00  3.9056039E-02
   7131.20  3.8392580E-02
   7131.40  3.7808913E-02
   7131.60  3.7302380E-02
   7131.80  3.6869006E-02
   7132.00  3.6503858E-02
   7133.00  3.5496071E-02
   7134.00  3.5311281E-02
   7135.00  3.5360598E-02
   7136.00  3.5308079E-02
   7137.00  3.5049846E-02
   7138.00  3.4622962E-02
   7139.00  3.4083729E-02
   7140.00  3.3457283E-02
   7141.00  3.2757205E-02
   7142.00  3.1998993E-02
   7143.00  3.1190824E-02
   7144.00  3.0331355E-02
   7145.00  2.9424489E-02
   7146.00  2.8493212E-02
   7147.00  2.7577927E-02
   7148.00  2.6723349E-02
   7149.00  2.5965526E-02
   7150.00  2.5326251E-02
   7151.00  2.4814849E-02
   7152.00  2.4432673E-02
   7153.00  2.4176620E-02
   7154.00  2.4041575E-02
   7155.00  2.4022377E-02
   7156.00  2.4114926E-02
   7157.00  2.4316185E-02
   7158.00  2.4623637E-02
   7159.00  2.5034676E-02
   7160.00  2.5546000E-02
   7161.00  2.6152965E-02
   7162.00  2.6848633E-02
   7163.00  2.7622134E-02
   7164.00  2.8456336E-02
   7165.00  2.9325697E-02
   7166.00  3.0195751E-02
   7167.00  3.1025346E-02
   7168.00  3.1771646E-02
   7169.00  3.2396757E-02
   7170.00  3.2874233E-02
   7171.00  3.3193659E-02
   7172.00  3.3361982E-02
   7173.00  3.3401128E-02
   7174.00  3.3342797E-02
   7175.00  3.3222300E-02
   7176.00  3.3073201E-02
   7177.00  3.2923665E-02
   7178.00  3.2794561E-02
   7179.00  3.2699054E-02
   7180.00  3.2643282E-02
   7181.00  3.2627662E-02
   7182.00  3.2648491E-02
   7183.00  3.2699595E-02
   7184.00  3.2773978E-02
   7185.00  3.2865361E-02
   7186.00  3.2969342E-02
   7187.00  3.3083783E-02
   7188.00  3.3208128E-02
   7189.00  3.3341696E-02
   7190.00  3.3481549E-02
   7191.00  3.3620856E-02
   7192.00  3.3748726E-02
   7193.00  3.3851802E-02
   7194.00  3.3917074E-02
   7195.00  3.3934719E-02
   7196.00  3.3899936E-02
   7197.00  3.3813331E-02
   7198.00  3.3680059E-02
   7199.00  3.3508306E-02
   7200.00  3.3307614E-02
   7201.00  3.3087431E-02
   7202.00  3.2856061E-02
   7203.00  3.2620100E-02
   7204.00  3.2384372E-02
   7205.00  3.2152274E-02
   7206.00  3.1926334E-02
   7207.00  3.1708765E-02
   7208.00  3.1501793E-02
   7209.00  3.1307688E-02
   7210.00  3.1128536E-02
   7211.00  3.0965923E-02
   7212.00  3.0820659E-02
