    Energy    <xanes>    
   7072.00  2.5726165E-04
   7072.50  2.6032463E-04
   7073.00  2.6345585E-04
   7073.50  2.6665756E-04
   7074.00  2.6993215E-04
   7074.50  2.7328209E-04
   7075.00  2.7670997E-04
   7075.50  2.8021852E-04
   7076.00  2.8381056E-04
   7076.50  2.8748908E-04
   7077.00  2.9125718E-04
   7077.50  2.9511812E-04
   7078.00  2.9907534E-04
   7078.50  3.0313242E-04
   7079.00  3.0729313E-04
   7079.50  3.1156144E-04
   7080.00  3.1594151E-04
   7080.50  3.2043772E-04
   7081.00  3.2505468E-04
   7081.50  3.2979725E-04
   7082.00  3.3467054E-04
   7082.50  3.3967995E-04
   7083.00  3.4483118E-04
   7083.50  3.5013023E-04
   7084.00  3.5558347E-04
   7084.50  3.6119761E-04
   7085.00  3.6697977E-04
   7085.50  3.7293749E-04
   7086.00  3.7907875E-04
   7086.50  3.8541203E-04
   7087.00  3.9194633E-04
   7087.50  3.9869123E-04
   7088.00  4.0565689E-04
   7088.50  4.1285417E-04
   7089.00  4.2029461E-04
   7089.50  4.2799055E-04
   7090.00  4.3595515E-04
   7090.50  4.4420249E-04
   7091.00  4.5274765E-04
   7091.50  4.6160678E-04
   7092.00  4.7079722E-04
   7092.50  4.8033758E-04
   7093.00  4.9024790E-04
   7093.50  5.0054974E-04
   7094.00  5.1126639E-04
   7094.50  5.2242297E-04
   7095.00  5.3404668E-04
   7095.50  5.4616699E-04
   7096.00  5.5881586E-04
   7096.50  5.7202806E-04
   7097.00  5.8584143E-04
   7097.50  6.0029728E-04
   7098.00  6.1544076E-04
   7098.50  6.3132130E-04
   7099.00  6.4799322E-04
   7099.50  6.6551623E-04
   7100.00  6.8395621E-04
   7100.50  7.0338601E-04
   7101.00  7.2388638E-04
   7101.50  7.4554711E-04
   7102.00  7.6846832E-04
   7102.50  7.9276206E-04
   7103.00  8.1855411E-04
   7103.50  8.4598624E-04
   7104.00  8.7521890E-04
   7104.50  9.0643448E-04
   7105.00  9.3984137E-04
   7105.50  9.7567898E-04
   7106.00  1.0142241E-03
   7106.50  1.0557991E-03
   7107.00  1.1007825E-03
   7107.10  1.1102263E-03
   7107.20  1.1198281E-03
   7107.30  1.1295921E-03
   7107.40  1.1395225E-03
   7107.50  1.1496238E-03
   7107.60  1.1599006E-03
   7107.70  1.1703579E-03
   7107.80  1.1810006E-03
   7107.90  1.1918339E-03
   7108.00  1.2028634E-03
   7108.10  1.2140948E-03
   7108.20  1.2255341E-03
   7108.30  1.2371874E-03
   7108.40  1.2490615E-03
   7108.50  1.2611631E-03
   7108.60  1.2734996E-03
   7108.70  1.2860786E-03
   7108.80  1.2989081E-03
   7108.90  1.3119967E-03
   7109.00  1.3253534E-03
   7109.10  1.3389878E-03
   7109.20  1.3529100E-03
   7109.30  1.3671311E-03
   7109.40  1.3816627E-03
   7109.50  1.3965173E-03
   7109.60  1.4117087E-03
   7109.70  1.4272515E-03
   7109.80  1.4431620E-03
   7109.90  1.4594577E-03
   7110.00  1.4761582E-03
   7110.10  1.4932853E-03
   7110.20  1.5108633E-03
   7110.30  1.5289197E-03
   7110.40  1.5474859E-03
   7110.50  1.5665978E-03
   7110.60  1.5862975E-03
   7110.70  1.6066339E-03
   7110.80  1.6276649E-03
   7110.90  1.6494592E-03
   7111.00  1.6720990E-03
   7111.10  1.6956815E-03
   7111.20  1.7203212E-03
   7111.30  1.7461481E-03
   7111.40  1.7733012E-03
   7111.50  1.8019090E-03
   7111.60  1.8320506E-03
   7111.70  1.8636906E-03
   7111.80  1.8965995E-03
   7111.90  1.9303063E-03
   7112.00  1.9641741E-03
   7112.10  1.9977921E-03
   7112.20  2.0308911E-03
   7112.30  2.0635123E-03
   7112.40  2.0960034E-03
   7112.50  2.1288508E-03
   7112.60  2.1625397E-03
   7112.70  2.1974845E-03
   7112.80  2.2340165E-03
   7112.90  2.2723985E-03
   7113.00  2.3128483E-03
   7113.10  2.3555592E-03
   7113.20  2.4007160E-03
   7113.30  2.4485028E-03
   7113.40  2.4991046E-03
   7113.50  2.5527028E-03
   7113.60  2.6094692E-03
   7113.70  2.6695576E-03
   7113.80  2.7330937E-03
   7113.90  2.8001621E-03
   7114.00  2.8707923E-03
   7114.10  2.9449474E-03
   7114.20  3.0225261E-03
   7114.30  3.1033885E-03
   7114.40  3.1874170E-03
   7114.50  3.2746106E-03
   7114.60  3.3651904E-03
   7114.70  3.4596766E-03
   7114.80  3.5589040E-03
   7114.90  3.6639728E-03
   7115.00  3.7761621E-03
   7115.10  3.8968414E-03
   7115.20  4.0273945E-03
   7115.30  4.1691453E-03
   7115.40  4.3232489E-03
   7115.50  4.4905051E-03
   7115.60  4.6710643E-03
   7115.70  4.8640502E-03
   7115.80  5.0672415E-03
   7115.90  5.2771185E-03
   7116.00  5.4896310E-03
   7116.10  5.7017078E-03
   7116.20  5.9128455E-03
   7116.30  6.1257559E-03
   7116.40  6.3456534E-03
   7116.50  6.5787859E-03
   7116.60  6.8311448E-03
   7116.70  7.1078140E-03
   7116.80  7.4128651E-03
   7116.90  7.7495094E-03
   7117.00  8.1202965E-03
   7117.20  8.9720432E-03
   7117.40  9.9797281E-03
   7117.60  1.1149583E-02
   7117.80  1.2482513E-02
   7118.00  1.3971816E-02
   7118.20  1.5602533E-02
   7118.40  1.7362109E-02
   7118.60  1.9257272E-02
   7118.80  2.1314858E-02
   7119.00  2.3558733E-02
   7119.20  2.5974403E-02
   7119.40  2.8477826E-02
   7119.60  3.0915854E-02
   7119.80  3.3123648E-02
   7120.00  3.5011877E-02
   7120.20  3.6599022E-02
   7120.40  3.7955258E-02
   7120.60  3.9134604E-02
   7120.80  4.0167232E-02
   7121.00  4.1090534E-02
   7121.20  4.1966096E-02
   7121.40  4.2872286E-02
   7121.60  4.3893421E-02
   7121.80  4.5116563E-02
   7122.00  4.6629113E-02
   7122.20  4.8510597E-02
   7122.40  5.0821460E-02
   7122.60  5.3594396E-02
   7122.80  5.6830439E-02
   7123.00  6.0499366E-02
   7123.20  6.4542512E-02
   7123.40  6.8875019E-02
   7123.60  7.3385921E-02
   7123.80  7.7938813E-02
   7124.00  8.2377639E-02
   7124.20  8.6538116E-02
   7124.40  9.0261283E-02
   7124.60  9.3406994E-02
   7124.80  9.5867826E-02
   7125.00  9.7582273E-02
   7125.20  9.8542587E-02
   7125.40  9.8793081E-02
   7125.60  9.8419635E-02
   7125.80  9.7535422E-02
   7126.00  9.6267540E-02
   7126.20  9.4745941E-02
   7126.40  9.3093743E-02
   7126.60  9.1418341E-02
   7126.80  8.9804209E-02
   7127.00  8.8308824E-02
   7127.20  8.6962466E-02
   7127.40  8.5771477E-02
   7127.60  8.4723843E-02
   7127.80  8.3795701E-02
   7128.00  8.2957555E-02
   7128.20  8.2179339E-02
   7128.40  8.1433915E-02
   7128.60  8.0699052E-02
   7128.80  7.9958136E-02
   7129.00  7.9200035E-02
   7129.20  7.8418448E-02
   7129.40  7.7611035E-02
   7129.60  7.6778508E-02
   7129.80  7.5923805E-02
   7130.00  7.5051403E-02
   7130.20  7.4166795E-02
   7130.40  7.3276093E-02
   7130.60  7.2385747E-02
   7130.80  7.1502341E-02
   7131.00  7.0632431E-02
   7131.20  6.9782417E-02
   7131.40  6.8958417E-02
   7131.60  6.8166145E-02
   7131.80  6.7410782E-02
   7132.00  6.6696844E-02
   7133.00  6.3846166E-02
   7134.00  6.2197010E-02
   7135.00  6.1445198E-02
   7136.00  6.1225469E-02
   7137.00  6.1335403E-02
   7138.00  6.1702848E-02
   7139.00  6.2221381E-02
   7140.00  6.2654073E-02
   7141.00  6.2705525E-02
   7142.00  6.2184389E-02
   7143.00  6.1086272E-02
   7144.00  5.9540546E-02
   7145.00  5.7720373E-02
   7146.00  5.5796661E-02
   7147.00  5.3928641E-02
   7148.00  5.2256943E-02
   7149.00  5.0888464E-02
   7150.00  4.9886506E-02
   7151.00  4.9275623E-02
   7152.00  4.9053687E-02
   7153.00  4.9199864E-02
   7154.00  4.9676727E-02
   7155.00  5.0432329E-02
   7156.00  5.1405883E-02
   7157.00  5.2535691E-02
   7158.00  5.3766433E-02
   7159.00  5.5053138E-02
   7160.00  5.6360539E-02
   7161.00  5.7659372E-02
   7162.00  5.8923342E-02
   7163.00  6.0129236E-02
   7164.00  6.1259361E-02
   7165.00  6.2303406E-02
   7166.00  6.3257545E-02
   7167.00  6.4120825E-02
   7168.00  6.4890567E-02
   7169.00  6.5558813E-02
   7170.00  6.6111175E-02
   7171.00  6.6528773E-02
   7172.00  6.6793226E-02
   7173.00  6.6893436E-02
   7174.00  6.6831510E-02
   7175.00  6.6625154E-02
   7176.00  6.6305558E-02
   7177.00  6.5911854E-02
   7178.00  6.5484252E-02
   7179.00  6.5057945E-02
   7180.00  6.4659254E-02
   7181.00  6.4304620E-02
   7182.00  6.4002072E-02
   7183.00  6.3753902E-02
   7184.00  6.3559253E-02
   7185.00  6.3415941E-02
   7186.00  6.3321606E-02
   7187.00  6.3274542E-02
   7188.00  6.3274329E-02
   7189.00  6.3322025E-02
   7190.00  6.3419583E-02
   7191.00  6.3568414E-02
   7192.00  6.3767473E-02
   7193.00  6.4011448E-02
   7194.00  6.4289490E-02
   7195.00  6.4584629E-02
   7196.00  6.4874039E-02
   7197.00  6.5130559E-02
   7198.00  6.5325788E-02
   7199.00  6.5434427E-02
   7200.00  6.5438632E-02
   7201.00  6.5330923E-02
   7202.00  6.5114828E-02
   7203.00  6.4803464E-02
   7204.00  6.4416943E-02
   7205.00  6.3979432E-02
   7206.00  6.3516290E-02
   7207.00  6.3051448E-02
   7208.00  6.2605167E-02
   7209.00  6.2192454E-02
   7210.00  6.1822394E-02
   7211.00  6.1498486E-02
   7212.00  6.1219789E-02
