    Energy    <xanes>    
   7072.00  6.3757272E-04
   7072.50  6.4498843E-04
   7073.00  6.5256623E-04
   7073.50  6.6031143E-04
   7074.00  6.6822958E-04
   7074.50  6.7632648E-04
   7075.00  6.8460818E-04
   7075.50  6.9308100E-04
   7076.00  7.0175157E-04
   7076.50  7.1062682E-04
   7077.00  7.1971401E-04
   7077.50  7.2902072E-04
   7078.00  7.3855493E-04
   7078.50  7.4832500E-04
   7079.00  7.5833968E-04
   7079.50  7.6860818E-04
   7080.00  7.7914018E-04
   7080.50  7.8994584E-04
   7081.00  8.0103585E-04
   7081.50  8.1242147E-04
   7082.00  8.2411456E-04
   7082.50  8.3612760E-04
   7083.00  8.4847379E-04
   7083.50  8.6116704E-04
   7084.00  8.7422203E-04
   7084.50  8.8765432E-04
   7085.00  9.0148032E-04
   7085.50  9.1571746E-04
   7086.00  9.3038416E-04
   7086.50  9.4550000E-04
   7087.00  9.6108574E-04
   7087.50  9.7716344E-04
   7088.00  9.9375659E-04
   7088.50  1.0108902E-03
   7089.00  1.0285908E-03
   7089.50  1.0468869E-03
   7090.00  1.0658089E-03
   7090.50  1.0853891E-03
   7091.00  1.1056624E-03
   7091.50  1.1266661E-03
   7092.00  1.1484400E-03
   7092.50  1.1710272E-03
   7093.00  1.1944741E-03
   7093.50  1.2188304E-03
   7094.00  1.2441502E-03
   7094.50  1.2704916E-03
   7095.00  1.2979179E-03
   7095.50  1.3264977E-03
   7096.00  1.3563055E-03
   7096.50  1.3874227E-03
   7097.00  1.4199381E-03
   7097.50  1.4539491E-03
   7098.00  1.4895626E-03
   7098.50  1.5268962E-03
   7099.00  1.5660800E-03
   7099.50  1.6072581E-03
   7100.00  1.6505907E-03
   7100.50  1.6962567E-03
   7101.00  1.7444568E-03
   7101.50  1.7954173E-03
   7102.00  1.8493943E-03
   7102.50  1.9066801E-03
   7103.00  1.9676101E-03
   7103.50  2.0325727E-03
   7104.00  2.1020214E-03
   7104.50  2.1764917E-03
   7105.00  2.2566240E-03
   7105.50  2.3431957E-03
   7106.00  2.4371676E-03
   7106.50  2.5397536E-03
   7107.00  2.6525282E-03
   7107.10  2.6767428E-03
   7107.20  2.7012056E-03
   7107.30  2.7259276E-03
   7107.40  2.7510810E-03
   7107.50  2.7776018E-03
   7107.60  2.8046492E-03
   7107.70  2.8320098E-03
   7107.80  2.8597003E-03
   7107.89  2.8839813E-03
   7107.99  2.9131979E-03
   7108.09  2.9434241E-03
   7108.19  2.9743934E-03
   7108.29  3.0061500E-03
   7108.39  3.0387428E-03
   7108.49  3.0722411E-03
   7108.59  3.1070490E-03
   7108.69  3.1428720E-03
   7108.79  3.1797831E-03
   7108.89  3.2178643E-03
   7108.99  3.2572261E-03
   7109.09  3.2983828E-03
   7109.19  3.3410208E-03
   7109.29  3.3852724E-03
   7109.39  3.4312882E-03
   7109.49  3.4792638E-03
   7109.59  3.5298993E-03
   7109.69  3.5828999E-03
   7109.79  3.6385326E-03
   7109.89  3.6971100E-03
   7109.98  3.7563884E-03
   7110.08  3.8222510E-03
   7110.18  3.8925000E-03
   7110.28  3.9677592E-03
   7110.38  4.0487799E-03
   7110.48  4.1364723E-03
   7110.58  4.2319453E-03
   7110.68  4.3365561E-03
   7110.78  4.4519701E-03
   7110.88  4.5802311E-03
   7110.98  4.7238336E-03
   7111.08  4.8857809E-03
   7111.18  5.0695881E-03
   7111.28  5.2791474E-03
   7111.38  5.5183133E-03
   7111.48  5.7900129E-03
   7111.58  6.0947528E-03
   7111.68  6.4288123E-03
   7111.78  6.7833003E-03
   7111.88  7.1458713E-03
   7111.98  7.5054331E-03
   7112.08  7.8563386E-03
   7112.18  8.1982598E-03
   7112.28  8.5326374E-03
   7112.38  8.8609586E-03
   7112.48  9.1863490E-03
   7112.58  9.5133908E-03
   7112.68  9.8427396E-03
   7112.78  1.0165693E-02
   7112.88  1.0466681E-02
   7112.98  1.0733379E-02
   7113.08  1.0964776E-02
   7113.18  1.1168035E-02
   7113.28  1.1345731E-02
   7113.38  1.1483390E-02
   7113.48  1.1548312E-02
   7113.58  1.1504990E-02
   7113.68  1.1339489E-02
   7113.78  1.1073486E-02
   7113.88  1.0755719E-02
   7113.98  1.0440020E-02
   7114.08  1.0167740E-02
   7114.18  9.9621545E-03
   7114.28  9.8313644E-03
   7114.38  9.7738988E-03
   7114.48  9.7836815E-03
   7114.58  9.8530237E-03
   7114.68  9.9732025E-03
   7114.78  1.0133178E-02
   7114.88  1.0318463E-02
   7114.98  1.0512598E-02
   7115.08  1.0701578E-02
   7115.18  1.0878367E-02
   7115.28  1.1043235E-02
   7115.38  1.1199459E-02
   7115.48  1.1348754E-02
   7115.58  1.1491353E-02
   7115.68  1.1630519E-02
   7115.78  1.1775924E-02
   7115.88  1.1941853E-02
   7115.98  1.2142231E-02
   7116.08  1.2386751E-02
   7116.18  1.2679760E-02
   7116.28  1.3021154E-02
   7116.38  1.3408257E-02
   7116.48  1.3838127E-02
   7116.58  1.4309684E-02
   7116.68  1.4825005E-02
   7116.78  1.5389455E-02
   7116.88  1.6010818E-02
   7116.98  1.6697956E-02
   7117.08  1.7483132E-02
   7117.18  1.8308781E-02
   7117.28  1.9264500E-02
   7117.38  2.0272854E-02
   7117.48  2.1428084E-02
   7117.58  2.2642679E-02
   7117.68  2.4016062E-02
   7117.78  2.5455289E-02
   7117.88  2.7054902E-02
   7117.98  2.8747154E-02
   7118.08  3.0537827E-02
   7118.18  3.2446691E-02
   7118.28  3.4392171E-02
   7118.38  3.6458771E-02
   7118.48  3.8462896E-02
   7118.58  4.0579638E-02
   7118.68  4.2527348E-02
   7118.78  4.4564987E-02
   7118.88  4.6370987E-02
   7118.98  4.8233105E-02
   7119.08  4.9876313E-02
   7119.18  5.1534352E-02
   7119.28  5.3041777E-02
   7119.38  5.4512506E-02
   7119.48  5.5909627E-02
   7119.58  5.7206257E-02
   7119.68  5.8485096E-02
   7119.78  5.9601346E-02
   7119.88  6.0733811E-02
   7119.98  6.1673391E-02
   7120.18  6.3468191E-02
   7120.38  6.5135857E-02
   7120.58  6.6882411E-02
   7120.78  6.8884009E-02
   7120.98  7.1233836E-02
   7121.18  7.3944171E-02
   7121.38  7.6979263E-02
   7121.58  8.0285747E-02
   7121.78  8.3801995E-02
   7121.98  8.7449893E-02
   7122.18  9.1129359E-02
   7122.38  9.4734888E-02
   7122.58  9.8191661E-02
   7122.78  1.0148899E-01
   7122.98  1.0469026E-01
   7123.18  1.0791236E-01
   7123.38  1.1128894E-01
   7123.58  1.1494177E-01
   7123.78  1.1896813E-01
   7123.98  1.2343712E-01
   7124.18  1.2839044E-01
   7124.38  1.3384714E-01
   7124.58  1.3980948E-01
   7124.78  1.4626347E-01
   7124.98  1.5317366E-01
   7125.18  1.6047875E-01
   7125.38  1.6809353E-01
   7125.58  1.7591499E-01
   7125.78  1.8382770E-01
   7125.98  1.9170756E-01
   7126.18  1.9942812E-01
   7126.38  2.0687246E-01
   7126.58  2.1394738E-01
   7126.78  2.2059125E-01
   7126.98  2.2676942E-01
   7127.18  2.3245974E-01
   7127.38  2.3763763E-01
   7127.58  2.4226906E-01
   7127.78  2.4631330E-01
   7127.98  2.4973136E-01
   7128.18  2.5249367E-01
   7128.38  2.5458250E-01
   7128.58  2.5598903E-01
   7128.78  2.5670836E-01
   7128.98  2.5673701E-01
   7129.18  2.5607565E-01
   7129.38  2.5473638E-01
   7129.58  2.5275061E-01
   7129.78  2.5017315E-01
   7129.98  2.4707995E-01
   7130.18  2.4356066E-01
   7130.38  2.3970912E-01
   7130.58  2.3561504E-01
   7130.78  2.3135849E-01
   7130.98  2.2700720E-01
   7131.18  2.2261633E-01
   7131.38  2.1822966E-01
   7131.58  2.1388183E-01
   7131.78  2.0960068E-01
   7131.98  2.0540931E-01
   7132.18  2.0144730E-01
   7132.38  1.9756085E-01
   7132.58  1.9375041E-01
   7132.78  1.9003173E-01
   7132.98  1.8649793E-01
   7133.18  1.8337833E-01
   7133.38  1.8031706E-01
   7133.58  1.7729731E-01
   7133.78  1.7432435E-01
   7133.98  1.7156816E-01
   7134.18  1.6924412E-01
   7134.38  1.6698989E-01
   7134.58  1.6478480E-01
   7134.78  1.6262672E-01
   7134.98  1.6063707E-01
   7135.98  1.5296166E-01
   7136.98  1.4796955E-01
   7137.98  1.4527510E-01
   7138.98  1.4445497E-01
   7139.98  1.4491489E-01
   7140.98  1.4592191E-01
   7141.98  1.4676946E-01
   7142.98  1.4692602E-01
   7143.98  1.4607391E-01
   7144.98  1.4410582E-01
   7145.98  1.4113615E-01
   7146.98  1.3748296E-01
   7147.98  1.3358236E-01
   7148.98  1.2987825E-01
   7149.98  1.2674868E-01
   7150.98  1.2447540E-01
   7151.98  1.2323053E-01
   7152.98  1.2306629E-01
   7153.98  1.2391255E-01
   7154.98  1.2559159E-01
   7155.98  1.2785308E-01
   7156.98  1.3042333E-01
   7157.98  1.3305501E-01
   7158.98  1.3556283E-01
   7159.98  1.3783785E-01
   7160.98  1.3984376E-01
   7161.98  1.4160350E-01
   7162.98  1.4318105E-01
   7163.98  1.4466194E-01
   7164.98  1.4613631E-01
   7165.98  1.4768705E-01
   7166.98  1.4938237E-01
   7167.98  1.5127119E-01
   7168.98  1.5337947E-01
   7169.98  1.5570691E-01
   7170.98  1.5822488E-01
   7171.98  1.6087771E-01
   7172.98  1.6358932E-01
   7173.98  1.6627348E-01
   7174.98  1.6884311E-01
   7175.98  1.7121425E-01
   7176.98  1.7330499E-01
   7177.98  1.7503424E-01
   7178.98  1.7632592E-01
   7179.98  1.7712021E-01
   7180.98  1.7738902E-01
   7181.98  1.7714878E-01
   7182.98  1.7646354E-01
   7183.98  1.7543555E-01
   7184.98  1.7418619E-01
   7185.98  1.7283439E-01
   7186.98  1.7147935E-01
   7187.98  1.7019067E-01
   7188.98  1.6900513E-01
   7189.98  1.6792781E-01
   7190.98  1.6693610E-01
   7191.98  1.6598646E-01
   7192.98  1.6502398E-01
   7193.98  1.6399390E-01
   7194.98  1.6285327E-01
   7195.98  1.6158037E-01
   7196.98  1.6017957E-01
   7197.98  1.5868086E-01
   7198.98  1.5713469E-01
   7199.98  1.5560427E-01
   7200.98  1.5415744E-01
   7201.98  1.5285904E-01
   7202.98  1.5176398E-01
   7203.98  1.5091090E-01
   7204.98  1.5031761E-01
   7205.98  1.4997951E-01
   7206.98  1.4987212E-01
   7207.98  1.4995677E-01
   7208.98  1.5018776E-01
   7209.98  1.5051895E-01
   7210.98  1.5090854E-01
   7211.98  1.5132173E-01
