    Energy    <xanes>    
   7072.00  1.3660236E-04
   7072.50  1.3831292E-04
   7073.00  1.4006422E-04
   7073.50  1.4185773E-04
   7074.00  1.4369497E-04
   7074.50  1.4557756E-04
   7075.00  1.4750718E-04
   7075.50  1.4948560E-04
   7076.00  1.5151469E-04
   7076.50  1.5359639E-04
   7077.00  1.5573277E-04
   7077.50  1.5792599E-04
   7078.00  1.6017833E-04
   7078.50  1.6249219E-04
   7079.00  1.6487012E-04
   7079.50  1.6731477E-04
   7080.00  1.6982897E-04
   7080.50  1.7241571E-04
   7081.00  1.7507815E-04
   7081.50  1.7781962E-04
   7082.00  1.8064366E-04
   7082.50  1.8355402E-04
   7083.00  1.8655467E-04
   7083.50  1.8964986E-04
   7084.00  1.9284405E-04
   7084.50  1.9614203E-04
   7085.00  1.9954889E-04
   7085.50  2.0307004E-04
   7086.00  2.0671127E-04
   7086.50  2.1047874E-04
   7087.00  2.1437906E-04
   7087.50  2.1841929E-04
   7088.00  2.2260700E-04
   7088.50  2.2695029E-04
   7089.00  2.3145790E-04
   7089.50  2.3613918E-04
   7090.00  2.4100422E-04
   7090.50  2.4606390E-04
   7091.00  2.5132995E-04
   7091.50  2.5681506E-04
   7092.00  2.6253297E-04
   7092.50  2.6849855E-04
   7093.00  2.7472799E-04
   7093.50  2.8123886E-04
   7094.00  2.8805034E-04
   7094.50  2.9518332E-04
   7095.00  3.0266069E-04
   7095.50  3.1050748E-04
   7096.00  3.1875122E-04
   7096.50  3.2742216E-04
   7097.00  3.3655366E-04
   7097.50  3.4618259E-04
   7098.00  3.5634981E-04
   7098.50  3.6710067E-04
   7099.00  3.7848569E-04
   7099.50  3.9056129E-04
   7100.00  4.0339066E-04
   7100.50  4.1704482E-04
   7101.00  4.3160382E-04
   7101.50  4.4715824E-04
   7102.00  4.6381097E-04
   7102.50  4.8167933E-04
   7103.00  5.0089768E-04
   7103.50  5.2162066E-04
   7104.00  5.4402709E-04
   7104.50  5.6832493E-04
   7105.00  5.9475749E-04
   7105.50  6.2361129E-04
   7106.00  6.5522622E-04
   7106.50  6.9000885E-04
   7107.00  7.2845003E-04
   7107.10  7.3662778E-04
   7107.20  7.4498077E-04
   7107.30  7.5351466E-04
   7107.40  7.6223531E-04
   7107.50  7.7114888E-04
   7107.60  7.8026178E-04
   7107.70  7.8958075E-04
   7107.80  7.9911283E-04
   7107.90  8.0886538E-04
   7108.00  8.1884616E-04
   7108.10  8.2906327E-04
   7108.20  8.3952526E-04
   7108.30  8.5024109E-04
   7108.40  8.6122021E-04
   7108.50  8.7247256E-04
   7108.60  8.8400864E-04
   7108.70  8.9583954E-04
   7108.80  9.0797699E-04
   7108.90  9.2043340E-04
   7109.00  9.3322195E-04
   7109.10  9.4635665E-04
   7109.20  9.5985242E-04
   7109.30  9.7372516E-04
   7109.40  9.8799190E-04
   7109.50  1.0026709E-03
   7109.60  1.0177817E-03
   7109.70  1.0333457E-03
   7109.80  1.0493856E-03
   7109.90  1.0659264E-03
   7110.00  1.0829954E-03
   7110.10  1.1006224E-03
   7110.20  1.1188405E-03
   7110.30  1.1376863E-03
   7110.40  1.1572007E-03
   7110.50  1.1774301E-03
   7110.60  1.1984268E-03
   7110.70  1.2202508E-03
   7110.80  1.2429715E-03
   7110.90  1.2666691E-03
   7111.00  1.2914371E-03
   7111.10  1.3173842E-03
   7111.20  1.3446350E-03
   7111.30  1.3733284E-03
   7111.40  1.4036092E-03
   7111.50  1.4356085E-03
   7111.60  1.4694041E-03
   7111.70  1.5049596E-03
   7111.80  1.5420581E-03
   7111.90  1.5802817E-03
   7112.00  1.6191392E-03
   7112.10  1.6583920E-03
   7112.20  1.6979560E-03
   7112.30  1.7380724E-03
   7112.40  1.7792191E-03
   7112.50  1.8219490E-03
   7112.60  1.8667820E-03
   7112.70  1.9141666E-03
   7112.80  1.9644878E-03
   7112.90  2.0180919E-03
   7113.00  2.0753125E-03
   7113.10  2.1364928E-03
   7113.20  2.2020028E-03
   7113.30  2.2722534E-03
   7113.40  2.3477096E-03
   7113.50  2.4289028E-03
   7113.60  2.5164438E-03
   7113.70  2.6110377E-03
   7113.80  2.7135003E-03
   7113.90  2.8247769E-03
   7114.00  2.9459627E-03
   7114.10  3.0783258E-03
   7114.20  3.2233287E-03
   7114.30  3.3826477E-03
   7114.40  3.5581839E-03
   7114.50  3.7520581E-03
   7114.60  3.9665787E-03
   7114.70  4.2041702E-03
   7114.80  4.4672494E-03
   7114.90  4.7580479E-03
   7115.00  5.0783870E-03
   7115.10  5.4294306E-03
   7115.20  5.8114421E-03
   7115.30  6.2235724E-03
   7115.40  6.6637116E-03
   7115.50  7.1284571E-03
   7115.60  7.6132445E-03
   7115.70  8.1126088E-03
   7115.80  8.6204488E-03
   7115.90  9.1302210E-03
   7116.00  9.6352235E-03
   7116.10  1.0129291E-02
   7116.20  1.0608019E-02
   7116.30  1.1070122E-02
   7116.40  1.1518208E-02
   7116.50  1.1958469E-02
   7116.60  1.2399376E-02
   7116.70  1.2849995E-02
   7116.80  1.3318563E-02
   7116.90  1.3811688E-02
   7117.00  1.4334225E-02
   7117.20  1.5480984E-02
   7117.40  1.6785710E-02
   7117.60  1.8293311E-02
   7117.80  2.0070152E-02
   7118.00  2.2163978E-02
   7118.20  2.4549611E-02
   7118.40  2.7133969E-02
   7118.60  2.9851034E-02
   7118.80  3.2747131E-02
   7119.00  3.5936909E-02
   7119.20  3.9470657E-02
   7119.40  4.3242372E-02
   7119.60  4.7006629E-02
   7119.80  5.0486813E-02
   7120.00  5.3492884E-02
   7120.20  5.5961258E-02
   7120.40  5.7905641E-02
   7120.60  5.9343399E-02
   7120.80  6.0264449E-02
   7121.00  6.0652525E-02
   7121.20  6.0515826E-02
   7121.40  5.9892315E-02
   7121.60  5.8838567E-02
   7121.80  5.7422695E-02
   7122.00  5.5724194E-02
   7122.20  5.3833819E-02
   7122.40  5.1847716E-02
   7122.60  4.9854431E-02
   7122.80  4.7920587E-02
   7123.00  4.6084637E-02
   7123.20  4.4361929E-02
   7123.40  4.2755443E-02
   7123.60  4.1264615E-02
   7123.80  3.9889573E-02
   7124.00  3.8632394E-02
   7124.20  3.7496905E-02
   7124.40  3.6486882E-02
   7124.60  3.5602539E-02
   7124.80  3.4836584E-02
   7125.00  3.4171933E-02
   7125.20  3.3582750E-02
   7125.40  3.3039046E-02
   7125.60  3.2513322E-02
   7125.80  3.1986439E-02
   7126.00  3.1450169E-02
   7126.20  3.0905770E-02
   7126.40  3.0360030E-02
   7126.60  2.9821077E-02
   7126.80  2.9295593E-02
   7127.00  2.8787800E-02
   7127.20  2.8299758E-02
   7127.40  2.7832223E-02
   7127.60  2.7385500E-02
   7127.80  2.6960011E-02
   7128.00  2.6556487E-02
   7128.20  2.6175851E-02
   7128.40  2.5818905E-02
   7128.60  2.5485988E-02
   7128.80  2.5176724E-02
   7129.00  2.4889935E-02
   7129.20  2.4623731E-02
   7129.40  2.4375730E-02
   7129.60  2.4143310E-02
   7129.80  2.3923850E-02
   7130.00  2.3714922E-02
   7130.20  2.3514425E-02
   7130.40  2.3320669E-02
   7130.60  2.3132437E-02
   7130.80  2.2949017E-02
   7131.00  2.2770204E-02
   7131.20  2.2596275E-02
   7131.40  2.2427932E-02
   7131.60  2.2266210E-02
   7131.80  2.2112361E-02
   7132.00  2.1967738E-02
   7133.00  2.1423571E-02
   7134.00  2.1219849E-02
   7135.00  2.1317355E-02
   7136.00  2.1648433E-02
   7137.00  2.2169807E-02
   7138.00  2.2861486E-02
   7139.00  2.3725703E-02
   7140.00  2.4770514E-02
   7141.00  2.5977620E-02
   7142.00  2.7288406E-02
   7143.00  2.8621392E-02
   7144.00  2.9898895E-02
   7145.00  3.1059756E-02
   7146.00  3.2060430E-02
   7147.00  3.2874359E-02
   7148.00  3.3488466E-02
   7149.00  3.3897621E-02
   7150.00  3.4104730E-02
   7151.00  3.4127757E-02
   7152.00  3.4004405E-02
   7153.00  3.3784881E-02
   7154.00  3.3514916E-02
   7155.00  3.3221500E-02
   7156.00  3.2910768E-02
   7157.00  3.2576111E-02
   7158.00  3.2207799E-02
   7159.00  3.1798011E-02
   7160.00  3.1341729E-02
   7161.00  3.0837323E-02
   7162.00  3.0288979E-02
   7163.00  2.9709886E-02
   7164.00  2.9123460E-02
   7165.00  2.8560694E-02
   7166.00  2.8053897E-02
   7167.00  2.7629432E-02
   7168.00  2.7303098E-02
   7169.00  2.7080115E-02
   7170.00  2.6958428E-02
   7171.00  2.6932236E-02
   7172.00  2.6993637E-02
   7173.00  2.7132700E-02
   7174.00  2.7337588E-02
   7175.00  2.7595675E-02
   7176.00  2.7895312E-02
   7177.00  2.8227384E-02
   7178.00  2.8586094E-02
   7179.00  2.8968829E-02
   7180.00  2.9375043E-02
   7181.00  2.9804315E-02
   7182.00  3.0254235E-02
   7183.00  3.0719286E-02
   7184.00  3.1191573E-02
   7185.00  3.1663063E-02
   7186.00  3.2127891E-02
   7187.00  3.2583111E-02
   7188.00  3.3027294E-02
   7189.00  3.3457630E-02
   7190.00  3.3867039E-02
   7191.00  3.4242774E-02
   7192.00  3.4567365E-02
   7193.00  3.4821742E-02
   7194.00  3.4989536E-02
   7195.00  3.5061068E-02
   7196.00  3.5035747E-02
   7197.00  3.4922081E-02
   7198.00  3.4735350E-02
   7199.00  3.4493861E-02
   7200.00  3.4215284E-02
   7201.00  3.3914393E-02
   7202.00  3.3602711E-02
   7203.00  3.3289501E-02
   7204.00  3.2983073E-02
   7205.00  3.2691515E-02
   7206.00  3.2422502E-02
   7207.00  3.2182411E-02
   7208.00  3.1975287E-02
   7209.00  3.1802205E-02
   7210.00  3.1661348E-02
   7211.00  3.1548729E-02
   7212.00  3.1459273E-02
