    Energy    <xanes>    
   7072.00  1.4565110E-04
   7072.50  1.4732792E-04
   7073.00  1.4904261E-04
   7073.50  1.5079648E-04
   7074.00  1.5259089E-04
   7074.50  1.5442728E-04
   7075.00  1.5630714E-04
   7075.50  1.5823206E-04
   7076.00  1.6020367E-04
   7076.50  1.6222371E-04
   7077.00  1.6429401E-04
   7077.50  1.6641646E-04
   7078.00  1.6859307E-04
   7078.50  1.7082596E-04
   7079.00  1.7311735E-04
   7079.50  1.7546958E-04
   7080.00  1.7788513E-04
   7080.50  1.8036658E-04
   7081.00  1.8291670E-04
   7081.50  1.8553837E-04
   7082.00  1.8823468E-04
   7082.50  1.9100887E-04
   7083.00  1.9386437E-04
   7083.50  1.9680482E-04
   7084.00  1.9983409E-04
   7084.50  2.0295627E-04
   7085.00  2.0617571E-04
   7085.50  2.0949705E-04
   7086.00  2.1292521E-04
   7086.50  2.1646543E-04
   7087.00  2.2012333E-04
   7087.50  2.2390486E-04
   7088.00  2.2781642E-04
   7088.50  2.3186484E-04
   7089.00  2.3605743E-04
   7089.50  2.4040204E-04
   7090.00  2.4490709E-04
   7090.50  2.4958164E-04
   7091.00  2.5443544E-04
   7091.50  2.5947900E-04
   7092.00  2.6472365E-04
   7092.50  2.7018167E-04
   7093.00  2.7586632E-04
   7093.50  2.8179202E-04
   7094.00  2.8797440E-04
   7094.50  2.9443048E-04
   7095.00  3.0117884E-04
   7095.50  3.0823973E-04
   7096.00  3.1563536E-04
   7096.50  3.2339006E-04
   7097.00  3.3153058E-04
   7097.50  3.4008641E-04
   7098.00  3.4909011E-04
   7098.50  3.5857773E-04
   7099.00  3.6858933E-04
   7099.50  3.7916949E-04
   7100.00  3.9036805E-04
   7100.50  4.0224082E-04
   7101.00  4.1485063E-04
   7101.50  4.2826836E-04
   7102.00  4.4257437E-04
   7102.50  4.5786015E-04
   7103.00  4.7423029E-04
   7103.50  4.9180505E-04
   7104.00  5.1072338E-04
   7104.50  5.3114684E-04
   7105.00  5.5326446E-04
   7105.50  5.7729908E-04
   7106.00  6.0351548E-04
   7106.50  6.3223117E-04
   7107.00  6.6383084E-04
   7107.10  6.7053655E-04
   7107.20  6.7738038E-04
   7107.30  6.8436680E-04
   7107.40  6.9150045E-04
   7107.50  6.9878621E-04
   7107.60  7.0622918E-04
   7107.70  7.1383470E-04
   7107.80  7.2160839E-04
   7107.90  7.2955613E-04
   7108.00  7.3768409E-04
   7108.10  7.4599879E-04
   7108.20  7.5450705E-04
   7108.30  7.6321610E-04
   7108.40  7.7213352E-04
   7108.50  7.8126735E-04
   7108.60  7.9062607E-04
   7108.70  8.0021865E-04
   7108.80  8.1005463E-04
   7108.90  8.2014412E-04
   7109.00  8.3049785E-04
   7109.10  8.4112729E-04
   7109.20  8.5204466E-04
   7109.30  8.6326305E-04
   7109.40  8.7479648E-04
   7109.50  8.8666004E-04
   7109.60  8.9886998E-04
   7109.70  9.1144391E-04
   7109.80  9.2440093E-04
   7109.90  9.3776184E-04
   7110.00  9.5154945E-04
   7110.10  9.6578883E-04
   7110.20  9.8050771E-04
   7110.30  9.9573696E-04
   7110.40  1.0115112E-03
   7110.50  1.0278693E-03
   7110.60  1.0448557E-03
   7110.70  1.0625210E-03
   7110.80  1.0809239E-03
   7110.90  1.1001319E-03
   7111.00  1.1202239E-03
   7111.10  1.1412911E-03
   7111.20  1.1634381E-03
   7111.30  1.1867810E-03
   7111.40  1.2114412E-03
   7111.50  1.2375305E-03
   7111.60  1.2651243E-03
   7111.70  1.2942251E-03
   7111.80  1.3247328E-03
   7111.90  1.3564641E-03
   7112.00  1.3893421E-03
   7112.10  1.4232460E-03
   7112.20  1.4581336E-03
   7112.30  1.4940866E-03
   7112.40  1.5312738E-03
   7112.50  1.5699092E-03
   7112.60  1.6102224E-03
   7112.70  1.6524457E-03
   7112.80  1.6968112E-03
   7112.90  1.7435525E-03
   7113.00  1.7929095E-03
   7113.10  1.8451335E-03
   7113.20  1.9004927E-03
   7113.30  1.9592769E-03
   7113.40  2.0218031E-03
   7113.50  2.0884211E-03
   7113.60  2.1595187E-03
   7113.70  2.2355288E-03
   7113.80  2.3169369E-03
   7113.90  2.4042892E-03
   7114.00  2.4982030E-03
   7114.10  2.5993787E-03
   7114.20  2.7086128E-03
   7114.30  2.8268150E-03
   7114.40  2.9550269E-03
   7114.50  3.0944453E-03
   7114.60  3.2464493E-03
   7114.70  3.4126324E-03
   7114.80  3.5948403E-03
   7114.90  3.7952147E-03
   7115.00  4.0162440E-03
   7115.10  4.2608199E-03
   7115.20  4.5322998E-03
   7115.30  4.8345718E-03
   7115.40  5.1721172E-03
   7115.50  5.5500602E-03
   7115.60  5.9741893E-03
   7115.70  6.4509219E-03
   7115.80  6.9871707E-03
   7115.90  7.5900522E-03
   7116.00  8.2663540E-03
   7116.10  9.0216666E-03
   7116.20  9.8590957E-03
   7116.30  1.0777535E-02
   7116.40  1.1769645E-02
   7116.50  1.2819962E-02
   7116.60  1.3903913E-02
   7116.70  1.4988730E-02
   7116.80  1.6037041E-02
   7116.90  1.7012933E-02
   7117.00  1.7888917E-02
   7117.20  1.9300818E-02
   7117.40  2.0320108E-02
   7117.60  2.1080110E-02
   7117.80  2.1630266E-02
   7118.00  2.1893504E-02
   7118.20  2.1765953E-02
   7118.40  2.1250001E-02
   7118.60  2.0491397E-02
   7118.80  1.9700592E-02
   7119.00  1.9053089E-02
   7119.20  1.8643108E-02
   7119.40  1.8487187E-02
   7119.60  1.8547104E-02
   7119.80  1.8756270E-02
   7120.00  1.9048944E-02
   7120.20  1.9389759E-02
   7120.40  1.9790395E-02
   7120.60  2.0302226E-02
   7120.80  2.0990673E-02
   7121.00  2.1907302E-02
   7121.20  2.3070631E-02
   7121.40  2.4459300E-02
   7121.60  2.6018882E-02
   7121.80  2.7680563E-02
   7122.00  2.9382574E-02
   7122.20  3.1081304E-02
   7122.40  3.2746937E-02
   7122.60  3.4352092E-02
   7122.80  3.5866640E-02
   7123.00  3.7263907E-02
   7123.20  3.8532476E-02
   7123.40  3.9683796E-02
   7123.60  4.0750312E-02
   7123.80  4.1776067E-02
   7124.00  4.2805366E-02
   7124.20  4.3873940E-02
   7124.40  4.5003946E-02
   7124.60  4.6201929E-02
   7124.80  4.7458288E-02
   7125.00  4.8746892E-02
   7125.20  5.0024083E-02
   7125.40  5.1227346E-02
   7125.60  5.2275584E-02
   7125.80  5.3074042E-02
   7126.00  5.3526174E-02
   7126.20  5.3551580E-02
   7126.40  5.3105032E-02
   7126.60  5.2189322E-02
   7126.80  5.0856433E-02
   7127.00  4.9196642E-02
   7127.20  4.7320281E-02
   7127.40  4.5338849E-02
   7127.60  4.3350629E-02
   7127.80  4.1432810E-02
   7128.00  3.9639476E-02
   7128.20  3.8003585E-02
   7128.40  3.6540945E-02
   7128.60  3.5254717E-02
   7128.80  3.4139557E-02
   7129.00  3.3185000E-02
   7129.20  3.2377979E-02
   7129.40  3.1704564E-02
   7129.60  3.1151045E-02
   7129.80  3.0704525E-02
   7130.00  3.0353162E-02
   7130.20  3.0086187E-02
   7130.40  2.9893795E-02
   7130.60  2.9766985E-02
   7130.80  2.9697393E-02
   7131.00  2.9677151E-02
   7131.20  2.9698784E-02
   7131.40  2.9755147E-02
   7131.60  2.9839403E-02
   7131.80  2.9945028E-02
   7132.00  3.0065853E-02
   7133.00  3.0714156E-02
   7134.00  3.1115843E-02
   7135.00  3.1102662E-02
   7136.00  3.0624857E-02
   7137.00  2.9593702E-02
   7138.00  2.8063435E-02
   7139.00  2.6327582E-02
   7140.00  2.4710752E-02
   7141.00  2.3390561E-02
   7142.00  2.2408839E-02
   7143.00  2.1752962E-02
   7144.00  2.1402042E-02
   7145.00  2.1330474E-02
   7146.00  2.1501110E-02
   7147.00  2.1870500E-02
   7148.00  2.2403655E-02
   7149.00  2.3081550E-02
   7150.00  2.3893747E-02
   7151.00  2.4825530E-02
   7152.00  2.5852143E-02
   7153.00  2.6943853E-02
   7154.00  2.8077362E-02
   7155.00  2.9245640E-02
   7156.00  3.0459305E-02
   7157.00  3.1737383E-02
   7158.00  3.3090770E-02
   7159.00  3.4504093E-02
   7160.00  3.5920872E-02
   7161.00  3.7236864E-02
   7162.00  3.8309327E-02
   7163.00  3.8989503E-02
   7164.00  3.9172134E-02
   7165.00  3.8835570E-02
   7166.00  3.8044836E-02
   7167.00  3.6919186E-02
   7168.00  3.5593611E-02
   7169.00  3.4197625E-02
   7170.00  3.2849115E-02
   7171.00  3.1649747E-02
   7172.00  3.0676201E-02
   7173.00  2.9971419E-02
   7174.00  2.9541899E-02
   7175.00  2.9363119E-02
   7176.00  2.9391112E-02
   7177.00  2.9576042E-02
   7178.00  2.9873157E-02
   7179.00  3.0247549E-02
   7180.00  3.0672131E-02
   7181.00  3.1122103E-02
   7182.00  3.1571282E-02
   7183.00  3.1994004E-02
   7184.00  3.2371370E-02
   7185.00  3.2696054E-02
   7186.00  3.2970606E-02
   7187.00  3.3199889E-02
   7188.00  3.3383110E-02
   7189.00  3.3510470E-02
   7190.00  3.3565740E-02
   7191.00  3.3532731E-02
   7192.00  3.3402393E-02
   7193.00  3.3177884E-02
   7194.00  3.2876440E-02
   7195.00  3.2528096E-02
   7196.00  3.2171880E-02
   7197.00  3.1850424E-02
   7198.00  3.1604355E-02
   7199.00  3.1467963E-02
   7200.00  3.1466903E-02
   7201.00  3.1617513E-02
   7202.00  3.1926753E-02
   7203.00  3.2392055E-02
   7204.00  3.3000985E-02
   7205.00  3.3730965E-02
   7206.00  3.4549342E-02
   7207.00  3.5414281E-02
   7208.00  3.6277375E-02
   7209.00  3.7089148E-02
   7210.00  3.7807597E-02
   7211.00  3.8407214E-02
   7212.00  3.8883607E-02
