    Energy    <xanes>    
   7072.00  1.3954799E-04
   7072.50  1.4125421E-04
   7073.00  1.4300034E-04
   7073.50  1.4478776E-04
   7074.00  1.4661796E-04
   7074.50  1.4849247E-04
   7075.00  1.5041292E-04
   7075.50  1.5238100E-04
   7076.00  1.5439850E-04
   7076.50  1.5646728E-04
   7077.00  1.5858932E-04
   7077.50  1.6076667E-04
   7078.00  1.6300152E-04
   7078.50  1.6529616E-04
   7079.00  1.6765298E-04
   7079.50  1.7007455E-04
   7080.00  1.7256355E-04
   7080.50  1.7512279E-04
   7081.00  1.7775528E-04
   7081.50  1.8046418E-04
   7082.00  1.8325283E-04
   7082.50  1.8612477E-04
   7083.00  1.8908376E-04
   7083.50  1.9213379E-04
   7084.00  1.9527907E-04
   7084.50  1.9852409E-04
   7085.00  2.0187363E-04
   7085.50  2.0533277E-04
   7086.00  2.0890691E-04
   7086.50  2.1260184E-04
   7087.00  2.1642372E-04
   7087.50  2.2037912E-04
   7088.00  2.2447508E-04
   7088.50  2.2871916E-04
   7089.00  2.3311944E-04
   7089.50  2.3768461E-04
   7090.00  2.4242399E-04
   7090.50  2.4734763E-04
   7091.00  2.5246635E-04
   7091.50  2.5779184E-04
   7092.00  2.6333673E-04
   7092.50  2.6911468E-04
   7093.00  2.7514051E-04
   7093.50  2.8143030E-04
   7094.00  2.8800157E-04
   7094.50  2.9487337E-04
   7095.00  3.0206655E-04
   7095.50  3.0960386E-04
   7096.00  3.1751028E-04
   7096.50  3.2581323E-04
   7097.00  3.3454291E-04
   7097.50  3.4373263E-04
   7098.00  3.5341925E-04
   7098.50  3.6364368E-04
   7099.00  3.7445139E-04
   7099.50  3.8589313E-04
   7100.00  3.9802569E-04
   7100.50  4.1091287E-04
   7101.00  4.2462652E-04
   7101.50  4.3924796E-04
   7102.00  4.5486956E-04
   7102.50  4.7159668E-04
   7103.00  4.8955014E-04
   7103.50  5.0886915E-04
   7104.00  5.2971501E-04
   7104.50  5.5227581E-04
   7105.00  5.7677234E-04
   7105.50  6.0346571E-04
   7106.00  6.3266734E-04
   7106.50  6.6475208E-04
   7107.00  7.0017606E-04
   7107.10  7.0770879E-04
   7107.20  7.1540222E-04
   7107.30  7.2326165E-04
   7107.40  7.3129266E-04
   7107.50  7.3950108E-04
   7107.60  7.4789302E-04
   7107.70  7.5647491E-04
   7107.80  7.6525347E-04
   7107.90  7.7423577E-04
   7108.00  7.8342925E-04
   7108.10  7.9284173E-04
   7108.20  8.0248145E-04
   7108.30  8.1235711E-04
   7108.40  8.2247787E-04
   7108.50  8.3285343E-04
   7108.60  8.4349403E-04
   7108.70  8.5441053E-04
   7108.80  8.6561443E-04
   7108.90  8.7711798E-04
   7109.00  8.8893417E-04
   7109.10  9.0107685E-04
   7109.20  9.1356081E-04
   7109.30  9.2640186E-04
   7109.40  9.3961695E-04
   7109.50  9.5322426E-04
   7109.60  9.6724339E-04
   7109.70  9.8169551E-04
   7109.80  9.9660352E-04
   7109.90  1.0119923E-03
   7110.00  1.0278892E-03
   7110.10  1.0443237E-03
   7110.20  1.0613289E-03
   7110.30  1.0789409E-03
   7110.40  1.0972002E-03
   7110.50  1.1161520E-03
   7110.60  1.1358473E-03
   7110.70  1.1563440E-03
   7110.80  1.1777080E-03
   7110.90  1.2000149E-03
   7111.00  1.2233511E-03
   7111.10  1.2478148E-03
   7111.20  1.2735156E-03
   7111.30  1.3005707E-03
   7111.40  1.3290952E-03
   7111.50  1.3591854E-03
   7111.60  1.3908937E-03
   7111.70  1.4242081E-03
   7111.80  1.4590670E-03
   7111.90  1.4955385E-03
   7112.00  1.5336169E-03
   7112.10  1.5733231E-03
   7112.20  1.6147500E-03
   7112.30  1.6580357E-03
   7112.40  1.7033396E-03
   7112.50  1.7508417E-03
   7112.60  1.8007636E-03
   7112.70  1.8533941E-03
   7112.80  1.9090994E-03
   7112.90  1.9683130E-03
   7113.00  2.0315163E-03
   7113.10  2.0992239E-03
   7113.20  2.1719814E-03
   7113.30  2.2503751E-03
   7113.40  2.3350484E-03
   7113.50  2.4267206E-03
   7113.60  2.5262078E-03
   7113.70  2.6344446E-03
   7113.80  2.7525080E-03
   7113.90  2.8816438E-03
   7114.00  3.0232975E-03
   7114.10  3.1791478E-03
   7114.20  3.3511466E-03
   7114.30  3.5415611E-03
   7114.40  3.7530209E-03
   7114.50  3.9885638E-03
   7114.60  4.2516784E-03
   7114.70  4.5463313E-03
   7114.80  4.8769645E-03
   7114.90  5.2484377E-03
   7115.00  5.6658744E-03
   7115.10  6.1343610E-03
   7115.20  6.6584326E-03
   7115.30  7.2412818E-03
   7115.40  7.8836578E-03
   7115.50  8.5825057E-03
   7115.60  9.3295605E-03
   7115.70  1.0110341E-02
   7115.80  1.0904201E-02
   7115.90  1.1686077E-02
   7116.00  1.2430115E-02
   7116.10  1.3114454E-02
   7116.20  1.3725519E-02
   7116.30  1.4260069E-02
   7116.40  1.4724161E-02
   7116.50  1.5129706E-02
   7116.60  1.5490225E-02
   7116.70  1.5817387E-02
   7116.80  1.6119068E-02
   7116.90  1.6398885E-02
   7117.00  1.6656828E-02
   7117.20  1.7097094E-02
   7117.40  1.7421723E-02
   7117.60  1.7638099E-02
   7117.80  1.7788526E-02
   7118.00  1.7937575E-02
   7118.20  1.8144474E-02
   7118.40  1.8439902E-02
   7118.60  1.8826770E-02
   7118.80  1.9301290E-02
   7119.00  1.9874166E-02
   7119.20  2.0574282E-02
   7119.40  2.1435071E-02
   7119.60  2.2478233E-02
   7119.80  2.3706966E-02
   7120.00  2.5109998E-02
   7120.20  2.6669061E-02
   7120.40  2.8359971E-02
   7120.60  3.0146149E-02
   7120.80  3.1976415E-02
   7121.00  3.3797893E-02
   7121.20  3.5578402E-02
   7121.40  3.7319958E-02
   7121.60  3.9050486E-02
   7121.80  4.0799664E-02
   7122.00  4.2576528E-02
   7122.20  4.4360260E-02
   7122.40  4.6103093E-02
   7122.60  4.7739339E-02
   7122.80  4.9196350E-02
   7123.00  5.0405678E-02
   7123.20  5.1313924E-02
   7123.40  5.1893019E-02
   7123.60  5.2147876E-02
   7123.80  5.2116667E-02
   7124.00  5.1860775E-02
   7124.20  5.1448151E-02
   7124.40  5.0938027E-02
   7124.60  5.0372439E-02
   7124.80  4.9774846E-02
   7125.00  4.9153159E-02
   7125.20  4.8504655E-02
   7125.40  4.7821230E-02
   7125.60  4.7094161E-02
   7125.80  4.6317708E-02
   7126.00  4.5491133E-02
   7126.20  4.4619151E-02
   7126.40  4.3711160E-02
   7126.60  4.2779806E-02
   7126.80  4.1839367E-02
   7127.00  4.0904261E-02
   7127.20  3.9987847E-02
   7127.40  3.9101583E-02
   7127.60  3.8254494E-02
   7127.80  3.7452923E-02
   7128.00  3.6700503E-02
   7128.20  3.5998351E-02
   7128.40  3.5345452E-02
   7128.60  3.4739189E-02
   7128.80  3.4175968E-02
   7129.00  3.3651841E-02
   7129.20  3.3163047E-02
   7129.40  3.2706411E-02
   7129.60  3.2279576E-02
   7129.80  3.1881060E-02
   7130.00  3.1510174E-02
   7130.20  3.1166849E-02
   7130.40  3.0851405E-02
   7130.60  3.0564314E-02
   7130.80  3.0305973E-02
   7131.00  3.0076522E-02
   7131.20  2.9875699E-02
   7131.40  2.9702741E-02
   7131.60  2.9556329E-02
   7131.80  2.9434575E-02
   7132.00  2.9335052E-02
   7133.00  2.9058017E-02
   7134.00  2.8835285E-02
   7135.00  2.8404920E-02
   7136.00  2.7779823E-02
   7137.00  2.7087061E-02
   7138.00  2.6423793E-02
   7139.00  2.5831692E-02
   7140.00  2.5321703E-02
   7141.00  2.4890900E-02
   7142.00  2.4533321E-02
   7143.00  2.4254019E-02
   7144.00  2.4075744E-02
   7145.00  2.4028798E-02
   7146.00  2.4132368E-02
   7147.00  2.4383277E-02
   7148.00  2.4757757E-02
   7149.00  2.5220151E-02
   7150.00  2.5731672E-02
   7151.00  2.6257457E-02
   7152.00  2.6772677E-02
   7153.00  2.7267066E-02
   7154.00  2.7746069E-02
   7155.00  2.8227902E-02
   7156.00  2.8737827E-02
   7157.00  2.9301408E-02
   7158.00  2.9937502E-02
   7159.00  3.0651385E-02
   7160.00  3.1429619E-02
   7161.00  3.2239291E-02
   7162.00  3.3033156E-02
   7163.00  3.3759480E-02
   7164.00  3.4372964E-02
   7165.00  3.4842874E-02
   7166.00  3.5156261E-02
   7167.00  3.5316534E-02
   7168.00  3.5339180E-02
   7169.00  3.5246635E-02
   7170.00  3.5063611E-02
   7171.00  3.4813392E-02
   7172.00  3.4515374E-02
   7173.00  3.4184194E-02
   7174.00  3.3830462E-02
   7175.00  3.3462528E-02
   7176.00  3.3088445E-02
   7177.00  3.2717458E-02
   7178.00  3.2360592E-02
   7179.00  3.2030051E-02
   7180.00  3.1737540E-02
   7181.00  3.1492114E-02
   7182.00  3.1298326E-02
   7183.00  3.1155245E-02
   7184.00  3.1056536E-02
   7185.00  3.0991485E-02
   7186.00  3.0946702E-02
   7187.00  3.0908187E-02
   7188.00  3.0863445E-02
   7189.00  3.0803316E-02
   7190.00  3.0723172E-02
   7191.00  3.0623213E-02
   7192.00  3.0507838E-02
   7193.00  3.0384327E-02
   7194.00  3.0261299E-02
   7195.00  3.0147331E-02
   7196.00  3.0050022E-02
   7197.00  2.9975564E-02
   7198.00  2.9928754E-02
   7199.00  2.9913298E-02
   7200.00  2.9932177E-02
   7201.00  2.9987852E-02
   7202.00  3.0082117E-02
   7203.00  3.0215637E-02
   7204.00  3.0387288E-02
   7205.00  3.0593609E-02
   7206.00  3.0828568E-02
   7207.00  3.1083825E-02
   7208.00  3.1349499E-02
   7209.00  3.1615310E-02
   7210.00  3.1871852E-02
   7211.00  3.2111678E-02
   7212.00  3.2329932E-02
