    Energy    <xanes>    
   9619.00  2.8341676E-04
   9619.50  2.8713976E-04
   9620.00  2.9095483E-04
   9620.50  2.9486538E-04
   9621.00  2.9887498E-04
   9621.50  3.0298739E-04
   9622.00  3.0720656E-04
   9622.50  3.1153663E-04
   9623.00  3.1598196E-04
   9623.50  3.2054715E-04
   9624.00  3.2523703E-04
   9624.50  3.3005671E-04
   9625.00  3.3501156E-04
   9625.50  3.4010726E-04
   9626.00  3.4534981E-04
   9626.50  3.5074554E-04
   9627.00  3.5630117E-04
   9627.50  3.6202378E-04
   9628.00  3.6792091E-04
   9628.50  3.7400052E-04
   9629.00  3.8027108E-04
   9629.50  3.8674158E-04
   9630.00  3.9342158E-04
   9630.50  4.0032124E-04
   9631.00  4.0745141E-04
   9631.50  4.1482362E-04
   9632.00  4.2245022E-04
   9632.50  4.3034436E-04
   9633.00  4.3852013E-04
   9633.50  4.4699263E-04
   9634.00  4.5577801E-04
   9634.50  4.6489363E-04
   9635.00  4.7435815E-04
   9635.50  4.8419161E-04
   9636.00  4.9441566E-04
   9636.50  5.0505360E-04
   9637.00  5.1613066E-04
   9637.50  5.2767409E-04
   9638.00  5.3971346E-04
   9638.50  5.5228086E-04
   9639.00  5.6541119E-04
   9639.50  5.7914245E-04
   9640.00  5.9351614E-04
   9640.50  6.0857761E-04
   9641.00  6.2437658E-04
   9641.50  6.4096763E-04
   9642.00  6.5841083E-04
   9642.50  6.7677245E-04
   9643.00  6.9612578E-04
   9643.50  7.1655208E-04
   9644.00  7.3814172E-04
   9644.50  7.6099547E-04
   9645.00  7.8522608E-04
   9645.50  8.1096013E-04
   9646.00  8.3834020E-04
   9646.50  8.6752760E-04
   9647.00  8.9870549E-04
   9647.50  9.3208287E-04
   9648.00  9.6789938E-04
   9648.50  1.0064313E-03
   9649.00  1.0479988E-03
   9649.50  1.0929760E-03
   9650.00  1.1418025E-03
   9650.50  1.1949996E-03
   9651.00  1.2531912E-03
   9651.50  1.3171322E-03
   9652.00  1.3877478E-03
   9652.50  1.4661883E-03
   9653.00  1.5539112E-03
   9653.50  1.6528036E-03
   9654.00  1.7653784E-03
   9654.10  1.7899488E-03
   9654.20  1.8149782E-03
   9654.30  1.8404918E-03
   9654.40  1.8671111E-03
   9654.50  1.8951024E-03
   9654.60  1.9236682E-03
   9654.70  1.9528445E-03
   9654.80  1.9826705E-03
   9654.90  2.0139355E-03
   9655.00  2.0469845E-03
   9655.10  2.0808275E-03
   9655.20  2.1155238E-03
   9655.30  2.1511392E-03
   9655.36  2.1724820E-03
   9655.46  2.2110033E-03
   9655.56  2.2511403E-03
   9655.66  2.2930229E-03
   9655.76  2.3367970E-03
   9655.86  2.3826280E-03
   9655.96  2.4307037E-03
   9656.06  2.4812383E-03
   9656.16  2.5344766E-03
   9656.26  2.5906999E-03
   9656.36  2.6502313E-03
   9656.46  2.7134431E-03
   9656.56  2.7807632E-03
   9656.66  2.8526823E-03
   9656.76  2.9297585E-03
   9656.86  3.0126181E-03
   9656.96  3.1019489E-03
   9657.06  3.1984799E-03
   9657.16  3.3029391E-03
   9657.26  3.4159845E-03
   9657.36  3.5381023E-03
   9657.46  3.6694802E-03
   9657.56  3.8098796E-03
   9657.66  3.9585613E-03
   9657.76  4.1143298E-03
   9657.86  4.2755094E-03
   9657.96  4.4400607E-03
   9658.06  4.6058361E-03
   9658.16  4.7708459E-03
   9658.26  4.9336231E-03
   9658.36  5.0936768E-03
   9658.46  5.2518747E-03
   9658.56  5.4105032E-03
   9658.66  5.5728527E-03
   9658.76  5.7424029E-03
   9658.86  5.9218777E-03
   9658.96  6.1124793E-03
   9659.06  6.3135197E-03
   9659.16  6.5225534E-03
   9659.26  6.7358922E-03
   9659.36  6.9491330E-03
   9659.46  7.1579968E-03
   9659.56  7.3588843E-03
   9659.66  7.5491752E-03
   9659.76  7.7273615E-03
   9659.86  7.8931929E-03
   9659.96  8.0479377E-03
   9660.06  8.1946499E-03
   9660.16  8.3382035E-03
   9660.26  8.4849400E-03
   9660.36  8.6420055E-03
   9660.46  8.8166081E-03
   9660.56  9.0154237E-03
   9660.66  9.2442628E-03
   9660.76  9.5079797E-03
   9660.86  9.8105324E-03
   9660.96  1.0155109E-02
   9661.06  1.0544302E-02
   9661.16  1.0980370E-02
   9661.26  1.1465600E-02
   9661.36  1.2002761E-02
   9661.46  1.2595583E-02
   9661.56  1.3249172E-02
   9661.66  1.3970237E-02
   9661.76  1.4767002E-02
   9661.86  1.5648679E-02
   9661.96  1.6624569E-02
   9662.06  1.7702894E-02
   9662.16  1.8889533E-02
   9662.26  2.0186762E-02
   9662.36  2.1592068E-02
   9662.46  2.3097156E-02
   9662.56  2.4687399E-02
   9662.66  2.6341998E-02
   9662.76  2.8035138E-02
   9662.86  2.9738177E-02
   9662.96  3.1422638E-02
   9663.06  3.3063480E-02
   9663.16  3.4642002E-02
   9663.26  3.6147760E-02
   9663.36  3.7579094E-02
   9663.46  3.8942175E-02
   9663.56  4.0248809E-02
   9663.66  4.1513522E-02
   9663.76  4.2750536E-02
   9663.86  4.3971205E-02
   9663.96  4.5182311E-02
   9664.06  4.6366911E-02
   9664.16  4.7563836E-02
   9664.26  4.8734039E-02
   9664.36  4.9883497E-02
   9664.46  5.0989469E-02
   9664.56  5.2050433E-02
   9664.66  5.3053211E-02
   9664.76  5.3987810E-02
   9664.86  5.4853240E-02
   9664.96  5.5633160E-02
   9665.06  5.6337392E-02
   9665.16  5.6949666E-02
   9665.26  5.7487982E-02
   9665.36  5.7941037E-02
   9665.56  5.8645005E-02
   9665.76  5.9098397E-02
   9665.96  5.9314844E-02
   9666.16  5.9305039E-02
   9666.36  5.9111949E-02
   9666.56  5.8816352E-02
   9666.76  5.8507748E-02
   9666.96  5.8251128E-02
   9667.16  5.8074607E-02
   9667.36  5.7977628E-02
   9667.56  5.7945608E-02
   9667.76  5.7960766E-02
   9667.96  5.8008240E-02
   9668.16  5.8080102E-02
   9668.36  5.8177489E-02
   9668.56  5.8308942E-02
   9668.76  5.8484480E-02
   9668.96  5.8708290E-02
   9669.16  5.8974313E-02
   9669.36  5.9267234E-02
   9669.56  5.9568054E-02
   9669.76  5.9861043E-02
   9669.96  6.0138533E-02
   9670.16  6.0401387E-02
   9670.36  6.0655129E-02
   9670.56  6.0903663E-02
   9670.76  6.1143387E-02
   9670.96  6.1360130E-02
   9671.16  6.1530110E-02
   9671.36  6.1624604E-02
   9671.56  6.1616688E-02
   9671.76  6.1487743E-02
   9671.96  6.1231627E-02
   9672.16  6.0855445E-02
   9672.36  6.0377220E-02
   9672.56  5.9821767E-02
   9672.76  5.9216304E-02
   9672.96  5.8586887E-02
   9673.16  5.7956092E-02
   9673.36  5.7341851E-02
   9673.56  5.6757092E-02
   9673.76  5.6209868E-02
   9673.96  5.5703762E-02
   9674.16  5.5238469E-02
   9674.36  5.4810529E-02
   9674.56  5.4414160E-02
   9674.76  5.4042154E-02
   9674.96  5.3686747E-02
   9675.16  5.3340403E-02
   9675.36  5.2996443E-02
   9675.56  5.2649499E-02
   9675.76  5.2295776E-02
   9675.96  5.1933131E-02
   9676.16  5.1561005E-02
   9676.36  5.1180227E-02
   9676.56  5.0792726E-02
   9676.76  5.0401207E-02
   9676.96  5.0008815E-02
   9677.16  4.9618828E-02
   9677.36  4.9234402E-02
   9677.56  4.8858382E-02
   9677.76  4.8493179E-02
   9677.96  4.8140705E-02
   9678.16  4.7802366E-02
   9678.36  4.7479077E-02
   9678.56  4.7171310E-02
   9678.76  4.6879153E-02
   9678.96  4.6602370E-02
   9679.16  4.6352942E-02
   9679.36  4.6114605E-02
   9679.56  4.5881676E-02
   9679.76  4.5653406E-02
   9679.96  4.5429029E-02
   9680.16  4.5236209E-02
   9680.36  4.5053346E-02
   9681.36  4.4208100E-02
   9682.36  4.3495948E-02
   9683.36  4.2859917E-02
   9684.36  4.2237278E-02
   9685.36  4.1569816E-02
   9686.36  4.0839343E-02
   9687.36  4.0082642E-02
   9688.36  3.9372574E-02
   9689.36  3.8785492E-02
   9690.36  3.8376599E-02
   9691.36  3.8169728E-02
   9692.36  3.8158357E-02
   9693.36  3.8312943E-02
   9694.36  3.8591080E-02
   9695.36  3.8947984E-02
   9696.36  3.9345001E-02
   9697.36  3.9754552E-02
   9698.36  4.0161540E-02
   9699.36  4.0562285E-02
   9700.36  4.0961781E-02
   9701.36  4.1369760E-02
   9702.36  4.1796542E-02
   9703.36  4.2249932E-02
   9704.36  4.2733800E-02
   9705.36  4.3247923E-02
   9706.36  4.3788272E-02
   9707.36  4.4347356E-02
   9708.36  4.4914812E-02
   9709.36  4.5478398E-02
   9710.36  4.6025176E-02
   9711.36  4.6542686E-02
   9712.36  4.7019984E-02
   9713.36  4.7448426E-02
   9714.36  4.7821949E-02
   9715.36  4.8136748E-02
   9716.36  4.8390525E-02
   9717.36  4.8581704E-02
   9718.36  4.8709077E-02
   9719.36  4.8772104E-02
   9720.36  4.8771672E-02
   9721.36  4.8710772E-02
   9722.36  4.8594621E-02
   9723.36  4.8430134E-02
   9724.36  4.8224981E-02
   9725.36  4.7986637E-02
   9726.36  4.7721755E-02
   9727.36  4.7436073E-02
   9728.36  4.7134866E-02
   9729.36  4.6823721E-02
   9730.36  4.6509264E-02
   9731.36  4.6199458E-02
   9732.36  4.5903301E-02
   9733.36  4.5630019E-02
   9734.36  4.5387985E-02
   9735.36  4.5183668E-02
   9736.36  4.5020821E-02
   9737.36  4.4900057E-02
   9738.36  4.4818875E-02
   9739.36  4.4772101E-02
   9740.36  4.4752646E-02
   9741.36  4.4752405E-02
   9742.36  4.4763140E-02
   9743.36  4.4777249E-02
   9744.36  4.4788374E-02
   9745.36  4.4791827E-02
   9746.36  4.4784791E-02
   9747.36  4.4766254E-02
   9748.36  4.4736695E-02
   9749.36  4.4697623E-02
   9750.36  4.4651127E-02
   9751.36  4.4599567E-02
   9752.36  4.4545412E-02
   9753.36  4.4491143E-02
   9754.36  4.4439110E-02
   9755.36  4.4391287E-02
   9756.36  4.4349014E-02
   9757.36  4.4312848E-02
   9758.36  4.4282617E-02
