    Energy    <xanes>    
   6499.00  1.6245229E-03
   6499.50  1.6438668E-03
   6500.00  1.6636394E-03
   6500.50  1.6838551E-03
   6501.00  1.7045286E-03
   6501.50  1.7256754E-03
   6502.00  1.7473118E-03
   6502.50  1.7694548E-03
   6503.00  1.7921222E-03
   6503.50  1.8153325E-03
   6504.00  1.8391053E-03
   6504.50  1.8634610E-03
   6505.00  1.8884210E-03
   6505.50  1.9140079E-03
   6506.00  1.9402452E-03
   6506.50  1.9671579E-03
   6507.00  1.9947719E-03
   6507.50  2.0231149E-03
   6508.00  2.0522157E-03
   6508.50  2.0821047E-03
   6509.00  2.1128142E-03
   6509.50  2.1443779E-03
   6510.00  2.1768317E-03
   6510.50  2.2102133E-03
   6511.00  2.2445628E-03
   6511.50  2.2799224E-03
   6512.00  2.3163369E-03
   6512.50  2.3538539E-03
   6513.00  2.3925238E-03
   6513.50  2.4323999E-03
   6514.00  2.4735394E-03
   6514.50  2.5160026E-03
   6515.00  2.5598541E-03
   6515.50  2.6051626E-03
   6516.00  2.6520015E-03
   6516.50  2.7004492E-03
   6517.00  2.7505897E-03
   6517.50  2.8025129E-03
   6518.00  2.8563151E-03
   6518.50  2.9121000E-03
   6519.00  2.9699789E-03
   6519.50  3.0300719E-03
   6520.00  3.0925084E-03
   6520.50  3.1574284E-03
   6521.00  3.2249832E-03
   6521.50  3.2953371E-03
   6522.00  3.3686685E-03
   6522.50  3.4451716E-03
   6523.00  3.5250583E-03
   6523.50  3.6085604E-03
   6524.00  3.6959318E-03
   6524.50  3.7874516E-03
   6525.00  3.8834274E-03
   6525.50  3.9841989E-03
   6526.00  4.0901432E-03
   6526.50  4.2016795E-03
   6527.00  4.3192761E-03
   6527.50  4.4434585E-03
   6528.00  4.5748183E-03
   6528.50  4.7140256E-03
   6529.00  4.8618435E-03
   6529.50  5.0191464E-03
   6530.00  5.1869431E-03
   6530.50  5.3664073E-03
   6531.00  5.5589167E-03
   6531.50  5.7661057E-03
   6532.00  5.9899373E-03
   6532.50  6.2328026E-03
   6533.00  6.4976648E-03
   6533.50  6.7882711E-03
   6534.00  7.1094770E-03
   6534.10  7.1791957E-03
   6534.20  7.2495165E-03
   6534.30  7.3204721E-03
   6534.40  7.3922854E-03
   6534.50  7.4677662E-03
   6534.60  7.5461383E-03
   6534.70  7.6253069E-03
   6534.80  7.7053221E-03
   6534.90  7.7864460E-03
   6535.00  7.8721216E-03
   6535.10  7.9614536E-03
   6535.20  8.0518872E-03
   6535.30  8.1435035E-03
   6535.40  8.2366233E-03
   6535.44  8.2790891E-03
   6535.54  8.3790401E-03
   6535.64  8.4819757E-03
   6535.74  8.5880411E-03
   6535.84  8.6974667E-03
   6535.94  8.8111355E-03
   6536.04  8.9296158E-03
   6536.14  9.0524000E-03
   6536.24  9.1797797E-03
   6536.34  9.3121696E-03
   6536.44  9.4507438E-03
   6536.54  9.5964222E-03
   6536.64  9.7488374E-03
   6536.74  9.9086206E-03
   6536.84  1.0076611E-02
   6536.94  1.0254584E-02
   6536.95  1.0272177E-02
   6537.05  1.0462476E-02
   6537.15  1.0664893E-02
   6537.25  1.0881117E-02
   6537.35  1.1113181E-02
   6537.45  1.1364563E-02
   6537.55  1.1637445E-02
   6537.65  1.1935375E-02
   6537.75  1.2262962E-02
   6537.85  1.2625950E-02
   6537.95  1.3032658E-02
   6538.05  1.3491048E-02
   6538.15  1.4011889E-02
   6538.25  1.4608298E-02
   6538.35  1.5295085E-02
   6538.45  1.6088339E-02
   6538.55  1.6997482E-02
   6538.65  1.8020843E-02
   6538.75  1.9134452E-02
   6538.85  2.0284346E-02
   6538.95  2.1395089E-02
   6539.05  2.2393336E-02
   6539.15  2.3247508E-02
   6539.25  2.3982475E-02
   6539.35  2.4660958E-02
   6539.45  2.5350560E-02
   6539.55  2.6094761E-02
   6539.65  2.6916909E-02
   6539.75  2.7835277E-02
   6539.85  2.8879206E-02
   6539.95  3.0095157E-02
   6540.05  3.1529106E-02
   6540.15  3.3211895E-02
   6540.25  3.5138543E-02
   6540.35  3.7256064E-02
   6540.37  3.7577606E-02
   6540.47  3.9787697E-02
   6540.57  4.1952388E-02
   6540.67  4.3954850E-02
   6540.77  4.5695543E-02
   6540.87  4.7088944E-02
   6540.97  4.8059792E-02
   6541.07  4.8553238E-02
   6541.17  4.8556456E-02
   6541.27  4.8115028E-02
   6541.37  4.7331213E-02
   6541.47  4.6343632E-02
   6541.57  4.5293419E-02
   6541.67  4.4285988E-02
   6541.77  4.3366398E-02
   6541.87  4.2524650E-02
   6541.97  4.1728017E-02
   6542.07  4.0957641E-02
   6542.17  4.0225858E-02
   6542.27  3.9569753E-02
   6542.37  3.9034697E-02
   6542.47  3.8661037E-02
   6542.57  3.8477019E-02
   6542.67  3.8495869E-02
   6542.77  3.8715889E-02
   6542.87  3.9123836E-02
   6542.97  3.9701516E-02
   6543.07  4.0433683E-02
   6543.17  4.1313897E-02
   6543.27  4.2346007E-02
   6543.37  4.3541964E-02
   6543.47  4.4918441E-02
   6543.57  4.6493746E-02
   6543.67  4.8285416E-02
   6543.77  5.0308826E-02
   6543.87  5.2576891E-02
   6543.97  5.5100696E-02
   6544.07  5.7920938E-02
   6544.17  6.0972706E-02
   6544.27  6.4351068E-02
   6544.37  6.7994353E-02
   6544.47  7.1977622E-02
   6544.57  7.6231321E-02
   6544.67  8.0780249E-02
   6544.77  8.5562889E-02
   6544.87  9.0517285E-02
   6544.97  9.5614427E-02
   6545.07  1.0070224E-01
   6545.17  1.0579631E-01
   6545.27  1.1070116E-01
   6545.37  1.1549118E-01
   6545.47  1.2002978E-01
   6545.57  1.2446184E-01
   6545.67  1.2874375E-01
   6545.77  1.3302025E-01
   6545.87  1.3726472E-01
   6545.97  1.4151476E-01
   6546.07  1.4575730E-01
   6546.17  1.4987123E-01
   6546.27  1.5394464E-01
   6546.37  1.5772520E-01
   6546.47  1.6145880E-01
   6546.57  1.6479645E-01
   6546.67  1.6811740E-01
   6546.77  1.7101496E-01
   6546.87  1.7393780E-01
   6546.97  1.7647403E-01
   6547.07  1.7907806E-01
   6547.17  1.8138114E-01
   6547.27  1.8381973E-01
   6547.37  1.8618116E-01
   6547.47  1.8877409E-01
   6547.57  1.9155609E-01
   6547.67  1.9467604E-01
   6547.77  1.9819575E-01
   6547.87  2.0212789E-01
   6547.97  2.0657692E-01
   6548.07  2.1146342E-01
   6548.17  2.1690471E-01
   6548.27  2.2276930E-01
   6548.37  2.2918044E-01
   6548.47  2.3597916E-01
   6548.57  2.4329416E-01
   6548.67  2.5093841E-01
   6548.77  2.5905040E-01
   6548.87  2.6738138E-01
   6548.97  2.7610397E-01
   6549.07  2.8484451E-01
   6549.17  2.9386270E-01
   6549.27  3.0261116E-01
   6549.37  3.1149493E-01
   6549.47  3.1984117E-01
   6549.57  3.2820732E-01
   6549.67  3.3595288E-01
   6549.77  3.4369512E-01
   6549.87  3.5097132E-01
   6549.97  3.5830879E-01
   6550.07  3.6545865E-01
   6550.17  3.7276886E-01
   6550.27  3.8016317E-01
   6550.37  3.8782366E-01
   6550.57  4.0412355E-01
   6550.77  4.2220412E-01
   6550.97  4.4241707E-01
   6551.17  4.6477098E-01
   6551.37  4.8876918E-01
   6551.57  5.1338888E-01
   6551.77  5.3727068E-01
   6551.97  5.5903812E-01
   6552.17  5.7759854E-01
   6552.37  5.9232813E-01
   6552.57  6.0311267E-01
   6552.77  6.1026092E-01
   6552.97  6.1435778E-01
   6553.17  6.1612779E-01
   6553.37  6.1632028E-01
   6553.57  6.1559262E-01
   6553.77  6.1439806E-01
   6553.97  6.1292628E-01
   6554.17  6.1114064E-01
   6554.37  6.0890127E-01
   6554.57  6.0609968E-01
   6554.77  6.0271842E-01
   6554.97  5.9880062E-01
   6555.17  5.9440240E-01
   6555.37  5.8959213E-01
   6555.57  5.8447117E-01
   6555.77  5.7916809E-01
   6555.97  5.7381173E-01
   6556.17  5.6850992E-01
   6556.37  5.6334070E-01
   6556.57  5.5835305E-01
   6556.77  5.5357645E-01
   6556.97  5.4903440E-01
   6557.17  5.4475136E-01
   6557.37  5.4074707E-01
   6557.57  5.3702332E-01
   6557.77  5.3355400E-01
   6557.97  5.3028515E-01
   6558.17  5.2714399E-01
   6558.37  5.2405166E-01
   6558.57  5.2093533E-01
   6558.77  5.1773726E-01
   6558.97  5.1442032E-01
   6559.17  5.1100052E-01
   6559.37  5.0744536E-01
   6559.57  5.0377052E-01
   6559.77  5.0001175E-01
   6559.97  4.9621022E-01
   6560.17  4.9249866E-01
   6560.37  4.8883805E-01
   6560.57  4.8524671E-01
   6560.77  4.8174364E-01
   6560.97  4.7833816E-01
   6561.17  4.7514128E-01
   6561.37  4.7207381E-01
   6561.57  4.6915974E-01
   6561.77  4.6638536E-01
   6561.97  4.6372485E-01
   6562.17  4.6122564E-01
   6562.37  4.5885764E-01
   6562.57  4.5665944E-01
   6562.77  4.5461011E-01
   6562.97  4.5267132E-01
   6563.17  4.5077713E-01
   6563.37  4.4899822E-01
   6563.57  4.4738078E-01
   6563.77  4.4590362E-01
   6563.97  4.4452761E-01
   6564.17  4.4314157E-01
   6564.37  4.4184367E-01
   6564.57  4.4067359E-01
   6564.77  4.3960761E-01
   6564.97  4.3861031E-01
   6565.17  4.3760524E-01
   6565.37  4.3664845E-01
   6566.37  4.3259138E-01
   6567.37  4.2887215E-01
   6568.37  4.2472001E-01
   6569.37  4.1972759E-01
   6570.37  4.1393132E-01
   6571.37  4.0756786E-01
   6572.37  4.0085695E-01
   6573.37  3.9400789E-01
   6574.37  3.8729310E-01
   6575.37  3.8103785E-01
   6576.37  3.7557466E-01
   6577.37  3.7122414E-01
   6578.37  3.6827963E-01
   6579.37  3.6697370E-01
   6580.37  3.6744243E-01
   6581.37  3.6970803E-01
   6582.37  3.7368324E-01
   6583.37  3.7918914E-01
   6584.37  3.8597938E-01
   6585.37  3.9376573E-01
   6586.37  4.0223480E-01
   6587.37  4.1105026E-01
   6588.37  4.1984965E-01
   6589.37  4.2825282E-01
   6590.37  4.3589169E-01
   6591.37  4.4245767E-01
   6592.37  4.4775091E-01
   6593.37  4.5171007E-01
   6594.37  4.5440752E-01
   6595.37  4.5601234E-01
   6596.37  4.5673908E-01
   6597.37  4.5680259E-01
   6598.37  4.5638960E-01
   6599.37  4.5564695E-01
   6600.37  4.5468071E-01
   6601.37  4.5356045E-01
   6602.37  4.5232658E-01
   6603.37  4.5100257E-01
   6604.37  4.4961200E-01
   6605.37  4.4819614E-01
   6606.37  4.4682613E-01
   6607.37  4.4560530E-01
   6608.37  4.4466036E-01
   6609.37  4.4412245E-01
   6610.37  4.4410164E-01
   6611.37  4.4466197E-01
   6612.37  4.4580639E-01
   6613.37  4.4747868E-01
   6614.37  4.4958078E-01
   6615.37  4.5199624E-01
   6616.37  4.5460850E-01
   6617.37  4.5730841E-01
   6618.37  4.5999155E-01
   6619.37  4.6254944E-01
   6620.37  4.6485950E-01
   6621.37  4.6677973E-01
   6622.37  4.6815376E-01
   6623.37  4.6882823E-01
   6624.37  4.6867771E-01
   6625.37  4.6762682E-01
   6626.37  4.6566008E-01
   6627.37  4.6281778E-01
   6628.37  4.5918376E-01
   6629.37  4.5487335E-01
   6630.37  4.5002554E-01
   6631.37  4.4479791E-01
   6632.37  4.3936048E-01
   6633.37  4.3388588E-01
   6634.37  4.2853688E-01
   6635.37  4.2345448E-01
   6636.37  4.1874935E-01
   6637.37  4.1449820E-01
   6638.37  4.1074471E-01
