    Energy    <xanes>    
   6499.00  5.6199450E-04
   6499.50  5.6907301E-04
   6500.00  5.7632007E-04
   6500.50  5.8374172E-04
   6501.00  5.9134427E-04
   6501.50  5.9913435E-04
   6502.00  6.0711892E-04
   6502.50  6.1530527E-04
   6503.00  6.2370108E-04
   6503.50  6.3231439E-04
   6504.00  6.4115368E-04
   6504.50  6.5022787E-04
   6505.00  6.5954635E-04
   6505.50  6.6911901E-04
   6506.00  6.7895629E-04
   6506.50  6.8906918E-04
   6507.00  6.9946930E-04
   6507.50  7.1016895E-04
   6508.00  7.2118109E-04
   6508.50  7.3251947E-04
   6509.00  7.4419864E-04
   6509.50  7.5623402E-04
   6510.00  7.6864198E-04
   6510.50  7.8143988E-04
   6511.00  7.9464618E-04
   6511.50  8.0828053E-04
   6512.00  8.2236382E-04
   6512.50  8.3691833E-04
   6513.00  8.5196783E-04
   6513.50  8.6753769E-04
   6514.00  8.8365505E-04
   6514.50  9.0034893E-04
   6515.00  9.1765044E-04
   6515.50  9.3559295E-04
   6516.00  9.5421229E-04
   6516.50  9.7354699E-04
   6517.00  9.9363855E-04
   6517.50  1.0145317E-03
   6518.00  1.0362747E-03
   6518.50  1.0589199E-03
   6519.00  1.0825237E-03
   6519.50  1.1071475E-03
   6520.00  1.1328581E-03
   6520.50  1.1597278E-03
   6521.00  1.1878359E-03
   6521.50  1.2172687E-03
   6522.00  1.2481207E-03
   6522.50  1.2804957E-03
   6523.00  1.3145076E-03
   6523.50  1.3502820E-03
   6524.00  1.3879575E-03
   6524.50  1.4276874E-03
   6525.00  1.4696421E-03
   6525.50  1.5140111E-03
   6526.00  1.5610057E-03
   6526.50  1.6108629E-03
   6527.00  1.6638486E-03
   6527.50  1.7202625E-03
   6528.00  1.7804438E-03
   6528.50  1.8447777E-03
   6529.00  1.9137037E-03
   6529.50  1.9877256E-03
   6530.00  2.0674232E-03
   6530.50  2.1534684E-03
   6531.00  2.2466434E-03
   6531.50  2.3478654E-03
   6532.00  2.4582172E-03
   6532.50  2.5789877E-03
   6533.00  2.7117245E-03
   6533.50  2.8583055E-03
   6534.00  3.0210364E-03
   6534.10  3.0557613E-03
   6534.20  3.0912709E-03
   6534.30  3.1275926E-03
   6534.40  3.1647553E-03
   6534.50  3.2027893E-03
   6534.60  3.2417263E-03
   6534.70  3.2816001E-03
   6534.80  3.3224459E-03
   6534.90  3.3643010E-03
   6535.00  3.4072048E-03
   6535.10  3.4511989E-03
   6535.20  3.4963276E-03
   6535.30  3.5426374E-03
   6535.40  3.5901780E-03
   6535.50  3.6390022E-03
   6535.60  3.6891662E-03
   6535.70  3.7407300E-03
   6535.80  3.7937577E-03
   6535.90  3.8483181E-03
   6536.00  3.9044850E-03
   6536.10  3.9623380E-03
   6536.20  4.0219628E-03
   6536.30  4.0834525E-03
   6536.40  4.1469081E-03
   6536.50  4.2124398E-03
   6536.60  4.2801683E-03
   6536.70  4.3502264E-03
   6536.80  4.4227607E-03
   6536.90  4.4979344E-03
   6537.00  4.5759295E-03
   6537.10  4.6569512E-03
   6537.20  4.7412317E-03
   6537.30  4.8290359E-03
   6537.40  4.9206690E-03
   6537.50  5.0164851E-03
   6537.60  5.1168991E-03
   6537.70  5.2224014E-03
   6537.80  5.3335773E-03
   6537.90  5.4511304E-03
   6538.00  5.5759120E-03
   6538.10  5.7089541E-03
   6538.20  5.8515010E-03
   6538.30  6.0050271E-03
   6538.40  6.1712080E-03
   6538.50  6.3517881E-03
   6538.60  6.5482509E-03
   6538.70  6.7612194E-03
   6538.80  6.9896973E-03
   6538.90  7.2307171E-03
   6539.00  7.4805126E-03
   6539.10  7.7373853E-03
   6539.20  8.0024886E-03
   6539.30  8.2798043E-03
   6539.40  8.5724609E-03
   6539.50  8.8778612E-03
   6539.60  9.1843644E-03
   6539.70  9.4726143E-03
   6539.80  9.7239045E-03
   6539.90  9.9321370E-03
   6540.00  1.0109183E-02
   6540.10  1.0278272E-02
   6540.20  1.0462601E-02
   6540.30  1.0678596E-02
   6540.40  1.0935439E-02
   6540.50  1.1237503E-02
   6540.60  1.1586890E-02
   6540.70  1.1985126E-02
   6540.80  1.2434094E-02
   6540.90  1.2936486E-02
   6541.00  1.3496027E-02
   6541.10  1.4117579E-02
   6541.20  1.4807218E-02
   6541.30  1.5572281E-02
   6541.40  1.6421386E-02
   6541.50  1.7364388E-02
   6541.60  1.8412210E-02
   6541.70  1.9576498E-02
   6541.80  2.0869056E-02
   6541.90  2.2301141E-02
   6542.00  2.3882860E-02
   6542.10  2.5623082E-02
   6542.20  2.7530292E-02
   6542.30  2.9614591E-02
   6542.40  3.1890400E-02
   6542.50  3.4378654E-02
   6542.60  3.7107240E-02
   6542.70  4.0109249E-02
   6542.80  4.3419609E-02
   6542.90  4.7070876E-02
   6543.00  5.1088815E-02
   6543.10  5.5488041E-02
   6543.20  6.0267940E-02
   6543.30  6.5409233E-02
   6543.40  7.0871758E-02
   6543.50  7.6594191E-02
   6543.60  8.2496378E-02
   6543.70  8.8484512E-02
   6543.80  9.4458684E-02
   6543.90  1.0032147E-01
   6544.00  1.0598568E-01
   6544.20  1.1644877E-01
   6544.40  1.2547970E-01
   6544.60  1.3295040E-01
   6544.80  1.3889440E-01
   6545.00  1.4336785E-01
   6545.20  1.4631818E-01
   6545.40  1.4768042E-01
   6545.60  1.4763530E-01
   6545.80  1.4662890E-01
   6546.00  1.4512441E-01
   6546.20  1.4345613E-01
   6546.40  1.4187312E-01
   6546.60  1.4060648E-01
   6546.80  1.3988587E-01
   6547.00  1.3990848E-01
   6547.20  1.4080132E-01
   6547.40  1.4263610E-01
   6547.60  1.4547482E-01
   6547.80  1.4936384E-01
   6548.00  1.5425443E-01
   6548.20  1.5990717E-01
   6548.40  1.6584657E-01
   6548.60  1.7141931E-01
   6548.80  1.7598239E-01
   6549.00  1.7915161E-01
   6549.20  1.8094609E-01
   6549.40  1.8171433E-01
   6549.60  1.8189800E-01
   6549.80  1.8180741E-01
   6550.00  1.8154895E-01
   6550.20  1.8110753E-01
   6550.40  1.8047564E-01
   6550.60  1.7972132E-01
   6550.80  1.7896956E-01
   6551.00  1.7834137E-01
   6551.20  1.7790252E-01
   6551.40  1.7764505E-01
   6551.60  1.7749825E-01
   6551.80  1.7735584E-01
   6552.00  1.7710770E-01
   6552.20  1.7666841E-01
   6552.40  1.7599659E-01
   6552.60  1.7510007E-01
   6552.80  1.7402627E-01
   6553.00  1.7284280E-01
   6553.20  1.7161642E-01
   6553.40  1.7039740E-01
   6553.60  1.6921168E-01
   6553.80  1.6806026E-01
   6554.00  1.6692353E-01
   6554.20  1.6576825E-01
   6554.40  1.6455557E-01
   6554.60  1.6324847E-01
   6554.80  1.6181770E-01
   6555.00  1.6024529E-01
   6555.20  1.5852549E-01
   6555.40  1.5666357E-01
   6555.60  1.5467327E-01
   6555.80  1.5257381E-01
   6556.00  1.5038727E-01
   6556.20  1.4813689E-01
   6556.40  1.4584615E-01
   6556.60  1.4353848E-01
   6556.80  1.4123728E-01
   6557.00  1.3896579E-01
   6557.20  1.3674674E-01
   6557.40  1.3460172E-01
   6557.60  1.3255041E-01
   6557.80  1.3060983E-01
   6558.00  1.2879379E-01
   6558.20  1.2711260E-01
   6558.40  1.2557303E-01
   6558.60  1.2417860E-01
   6558.80  1.2293002E-01
   6559.00  1.2182574E-01
   6560.00  1.1832137E-01
   6561.00  1.1765987E-01
   6562.00  1.1904734E-01
   6563.00  1.2158563E-01
   6564.00  1.2438059E-01
   6565.00  1.2670231E-01
   6566.00  1.2805871E-01
   6567.00  1.2823040E-01
   6568.00  1.2727178E-01
   6569.00  1.2545315E-01
   6570.00  1.2317865E-01
   6571.00  1.2089285E-01
   6572.00  1.1897380E-01
   6573.00  1.1765992E-01
   6574.00  1.1704939E-01
   6575.00  1.1714660E-01
   6576.00  1.1790430E-01
   6577.00  1.1923862E-01
   6578.00  1.2102777E-01
   6579.00  1.2311221E-01
   6580.00  1.2530650E-01
   6581.00  1.2742609E-01
   6582.00  1.2932381E-01
   6583.00  1.3091984E-01
   6584.00  1.3220921E-01
   6585.00  1.3324566E-01
   6586.00  1.3411597E-01
   6587.00  1.3491796E-01
   6588.00  1.3574394E-01
   6589.00  1.3666476E-01
   6590.00  1.3771401E-01
   6591.00  1.3887798E-01
   6592.00  1.4009780E-01
   6593.00  1.4128460E-01
   6594.00  1.4234184E-01
   6595.00  1.4318610E-01
   6596.00  1.4376065E-01
   6597.00  1.4404119E-01
   6598.00  1.4403527E-01
   6599.00  1.4377712E-01
   6600.00  1.4331939E-01
   6601.00  1.4272426E-01
   6602.00  1.4205533E-01
   6603.00  1.4137121E-01
   6604.00  1.4072106E-01
   6605.00  1.4014266E-01
   6606.00  1.3966258E-01
   6607.00  1.3929761E-01
   6608.00  1.3905614E-01
   6609.00  1.3893885E-01
   6610.00  1.3893873E-01
   6611.00  1.3904115E-01
   6612.00  1.3922515E-01
   6613.00  1.3946668E-01
   6614.00  1.3974316E-01
   6615.00  1.4003717E-01
   6616.00  1.4033727E-01
   6617.00  1.4063569E-01
   6618.00  1.4092421E-01
   6619.00  1.4119021E-01
   6620.00  1.4141438E-01
   6621.00  1.4157065E-01
   6622.00  1.4162899E-01
   6623.00  1.4156099E-01
   6624.00  1.4134722E-01
   6625.00  1.4098360E-01
   6626.00  1.4048404E-01
   6627.00  1.3987805E-01
   6628.00  1.3920453E-01
   6629.00  1.3850459E-01
   6630.00  1.3781564E-01
   6631.00  1.3716780E-01
   6632.00  1.3658250E-01
   6633.00  1.3607244E-01
   6634.00  1.3564259E-01
   6635.00  1.3529160E-01
   6636.00  1.3501330E-01
   6637.00  1.3479820E-01
   6638.00  1.3463496E-01
   6639.00  1.3451187E-01
