    Energy    <xanes>    
   6499.00  5.6951410E-04
   6499.50  5.7650530E-04
   6500.00  5.8366059E-04
   6500.50  5.9098578E-04
   6501.00  5.9848696E-04
   6501.50  6.0617052E-04
   6502.00  6.1404314E-04
   6502.50  6.2211187E-04
   6503.00  6.3038406E-04
   6503.50  6.3886747E-04
   6504.00  6.4757025E-04
   6504.50  6.5650097E-04
   6505.00  6.6566863E-04
   6505.50  6.7508274E-04
   6506.00  6.8475331E-04
   6506.50  6.9469088E-04
   6507.00  7.0490661E-04
   6507.50  7.1541224E-04
   6508.00  7.2622023E-04
   6508.50  7.3734370E-04
   6509.00  7.4879659E-04
   6509.50  7.6059362E-04
   6510.00  7.7275045E-04
   6510.50  7.8528365E-04
   6511.00  7.9821083E-04
   6511.50  8.1155072E-04
   6512.00  8.2532324E-04
   6512.50  8.3954961E-04
   6513.00  8.5425244E-04
   6513.50  8.6945586E-04
   6514.00  8.8518566E-04
   6514.50  9.0146938E-04
   6515.00  9.1833656E-04
   6515.50  9.3581880E-04
   6516.00  9.5395006E-04
   6516.50  9.7276679E-04
   6517.00  9.9230821E-04
   6517.50  1.0126166E-03
   6518.00  1.0337374E-03
   6518.50  1.0557201E-03
   6519.00  1.0786177E-03
   6519.50  1.1024879E-03
   6520.00  1.1273935E-03
   6520.50  1.1534024E-03
   6521.00  1.1805887E-03
   6521.50  1.2090333E-03
   6522.00  1.2388246E-03
   6522.50  1.2700591E-03
   6523.00  1.3028431E-03
   6523.50  1.3372934E-03
   6524.00  1.3735386E-03
   6524.50  1.4117209E-03
   6525.00  1.4519977E-03
   6525.50  1.4945439E-03
   6526.00  1.5395543E-03
   6526.50  1.5872464E-03
   6527.00  1.6378640E-03
   6527.50  1.6916813E-03
   6528.00  1.7490073E-03
   6528.50  1.8101923E-03
   6529.00  1.8756346E-03
   6529.50  1.9457888E-03
   6530.00  2.0211769E-03
   6530.50  2.1024008E-03
   6531.00  2.1901584E-03
   6531.50  2.2852642E-03
   6532.00  2.3886746E-03
   6532.50  2.5015215E-03
   6533.00  2.6251554E-03
   6533.50  2.7612030E-03
   6534.00  2.9116458E-03
   6534.10  2.9436672E-03
   6534.20  2.9763825E-03
   6534.30  3.0098148E-03
   6534.40  3.0439885E-03
   6534.50  3.0789290E-03
   6534.60  3.1146632E-03
   6534.70  3.1512190E-03
   6534.80  3.1886260E-03
   6534.90  3.2269153E-03
   6535.00  3.2661197E-03
   6535.10  3.3062735E-03
   6535.20  3.3474133E-03
   6535.30  3.3895776E-03
   6535.40  3.4328071E-03
   6535.50  3.4771451E-03
   6535.60  3.5226374E-03
   6535.70  3.5693330E-03
   6535.80  3.6172838E-03
   6535.90  3.6665455E-03
   6536.00  3.7171776E-03
   6536.10  3.7692439E-03
   6536.20  3.8228131E-03
   6536.30  3.8779594E-03
   6536.40  3.9347631E-03
   6536.50  3.9933114E-03
   6536.60  4.0536998E-03
   6536.70  4.1160324E-03
   6536.80  4.1804242E-03
   6536.90  4.2470027E-03
   6537.00  4.3159097E-03
   6537.10  4.3873042E-03
   6537.20  4.4613660E-03
   6537.30  4.5382998E-03
   6537.40  4.6183405E-03
   6537.50  4.7017604E-03
   6537.60  4.7888783E-03
   6537.70  4.8800705E-03
   6537.80  4.9757863E-03
   6537.90  5.0765666E-03
   6538.00  5.1830678E-03
   6538.10  5.2960897E-03
   6538.20  5.4166069E-03
   6538.30  5.5457942E-03
   6538.40  5.6850307E-03
   6538.50  5.8358440E-03
   6538.60  5.9997305E-03
   6538.70  6.1777677E-03
   6538.80  6.3699846E-03
   6538.90  6.5746376E-03
   6539.00  6.7879757E-03
   6539.10  7.0048867E-03
   6539.20  7.2185033E-03
   6539.30  7.4218807E-03
   6539.40  7.6093856E-03
   6539.50  7.7783139E-03
   6539.60  7.9303725E-03
   6539.70  8.0719777E-03
   6539.80  8.2126253E-03
   6539.90  8.3620136E-03
   6540.00  8.5277331E-03
   6540.10  8.7146091E-03
   6540.20  8.9252988E-03
   6540.30  9.1612340E-03
   6540.40  9.4233810E-03
   6540.50  9.7127035E-03
   6540.60  1.0030401E-02
   6540.70  1.0378018E-02
   6540.80  1.0757486E-02
   6540.90  1.1171159E-02
   6541.00  1.1621854E-02
   6541.10  1.2112924E-02
   6541.20  1.2648341E-02
   6541.30  1.3232787E-02
   6541.40  1.3871726E-02
   6541.50  1.4571488E-02
   6541.60  1.5339360E-02
   6541.70  1.6183688E-02
   6541.80  1.7113993E-02
   6541.90  1.8141093E-02
   6542.00  1.9277225E-02
   6542.10  2.0536157E-02
   6542.20  2.1933285E-02
   6542.30  2.3485693E-02
   6542.40  2.5212152E-02
   6542.50  2.7133031E-02
   6542.60  2.9270053E-02
   6542.70  3.1645831E-02
   6542.80  3.4283091E-02
   6542.90  3.7203444E-02
   6543.00  4.0425610E-02
   6543.10  4.3963043E-02
   6543.20  4.7821074E-02
   6543.30  5.1993978E-02
   6543.40  5.6462661E-02
   6543.50  6.1193926E-02
   6543.60  6.6142195E-02
   6543.70  7.1253945E-02
   6543.80  7.6474018E-02
   6543.90  8.1751791E-02
   6544.00  8.7044719E-02
   6544.20  9.7536979E-02
   6544.40  1.0764945E-01
   6544.60  1.1691186E-01
   6544.80  1.2468104E-01
   6545.00  1.3041217E-01
   6545.20  1.3398249E-01
   6545.40  1.3579625E-01
   6545.60  1.3660328E-01
   6545.80  1.3717331E-01
   6546.00  1.3803124E-01
   6546.20  1.3932650E-01
   6546.40  1.4085989E-01
   6546.60  1.4232514E-01
   6546.80  1.4358978E-01
   6547.00  1.4473064E-01
   6547.20  1.4587355E-01
   6547.40  1.4708428E-01
   6547.60  1.4836827E-01
   6547.80  1.4969735E-01
   6548.00  1.5103595E-01
   6548.20  1.5237751E-01
   6548.40  1.5378099E-01
   6548.60  1.5538897E-01
   6548.80  1.5741079E-01
   6549.00  1.6005419E-01
   6549.20  1.6342089E-01
   6549.40  1.6742379E-01
   6549.60  1.7177860E-01
   6549.80  1.7607826E-01
   6550.00  1.7991686E-01
   6550.20  1.8300815E-01
   6550.40  1.8524808E-01
   6550.60  1.8670339E-01
   6550.80  1.8754656E-01
   6551.00  1.8797349E-01
   6551.20  1.8813574E-01
   6551.40  1.8810711E-01
   6551.60  1.8788947E-01
   6551.80  1.8744640E-01
   6552.00  1.8674403E-01
   6552.20  1.8578021E-01
   6552.40  1.8459314E-01
   6552.60  1.8325137E-01
   6552.80  1.8183342E-01
   6553.00  1.8040696E-01
   6553.20  1.7901421E-01
   6553.40  1.7766619E-01
   6553.60  1.7634459E-01
   6553.80  1.7500844E-01
   6554.00  1.7360327E-01
   6554.20  1.7207085E-01
   6554.40  1.7035879E-01
   6554.60  1.6842866E-01
   6554.80  1.6626159E-01
   6555.00  1.6386031E-01
   6555.20  1.6124740E-01
   6555.40  1.5846090E-01
   6555.60  1.5554843E-01
   6555.80  1.5256170E-01
   6556.00  1.4955192E-01
   6556.20  1.4656671E-01
   6556.40  1.4364831E-01
   6556.60  1.4083263E-01
   6556.80  1.3814896E-01
   6557.00  1.3562009E-01
   6557.20  1.3326268E-01
   6557.40  1.3108781E-01
   6557.60  1.2910155E-01
   6557.80  1.2730566E-01
   6558.00  1.2569829E-01
   6558.20  1.2427459E-01
   6558.40  1.2302741E-01
   6558.60  1.2194786E-01
   6558.80  1.2102590E-01
   6559.00  1.2025079E-01
   6560.00  1.1819952E-01
   6561.00  1.1828841E-01
   6562.00  1.1943910E-01
   6563.00  1.2070463E-01
   6564.00  1.2140543E-01
   6565.00  1.2127189E-01
   6566.00  1.2039237E-01
   6567.00  1.1903232E-01
   6568.00  1.1748062E-01
   6569.00  1.1599358E-01
   6570.00  1.1478555E-01
   6571.00  1.1401967E-01
   6572.00  1.1379553E-01
   6573.00  1.1414871E-01
   6574.00  1.1507252E-01
   6575.00  1.1654548E-01
   6576.00  1.1853772E-01
   6577.00  1.2099246E-01
   6578.00  1.2380140E-01
   6579.00  1.2679924E-01
   6580.00  1.2978905E-01
   6581.00  1.3258641E-01
   6582.00  1.3506069E-01
   6583.00  1.3715864E-01
   6584.00  1.3890441E-01
   6585.00  1.4037582E-01
   6586.00  1.4166643E-01
   6587.00  1.4284955E-01
   6588.00  1.4395654E-01
   6589.00  1.4497137E-01
   6590.00  1.4583679E-01
   6591.00  1.4646877E-01
   6592.00  1.4677787E-01
   6593.00  1.4669486E-01
   6594.00  1.4619220E-01
   6595.00  1.4529248E-01
   6596.00  1.4406110E-01
   6597.00  1.4258853E-01
   6598.00  1.4097189E-01
   6599.00  1.3930269E-01
   6600.00  1.3766219E-01
   6601.00  1.3612114E-01
   6602.00  1.3473988E-01
   6603.00  1.3356677E-01
   6604.00  1.3263552E-01
   6605.00  1.3196327E-01
   6606.00  1.3155121E-01
   6607.00  1.3138827E-01
   6608.00  1.3145685E-01
   6609.00  1.3173785E-01
   6610.00  1.3221298E-01
   6611.00  1.3286361E-01
   6612.00  1.3366743E-01
   6613.00  1.3459533E-01
   6614.00  1.3561012E-01
   6615.00  1.3666811E-01
   6616.00  1.3772334E-01
   6617.00  1.3873351E-01
   6618.00  1.3966563E-01
   6619.00  1.4049933E-01
   6620.00  1.4122643E-01
   6621.00  1.4184723E-01
   6622.00  1.4236577E-01
   6623.00  1.4278668E-01
   6624.00  1.4311466E-01
   6625.00  1.4335594E-01
   6626.00  1.4351989E-01
   6627.00  1.4361957E-01
   6628.00  1.4367083E-01
   6629.00  1.4369100E-01
   6630.00  1.4369767E-01
   6631.00  1.4370789E-01
   6632.00  1.4373729E-01
   6633.00  1.4379885E-01
   6634.00  1.4390112E-01
   6635.00  1.4404667E-01
   6636.00  1.4423145E-01
   6637.00  1.4444569E-01
   6638.00  1.4467632E-01
   6639.00  1.4490993E-01
