    Energy    <xanes>    
   6499.00  6.0672259E-04
   6499.50  6.1405569E-04
   6500.00  6.2156179E-04
   6500.50  6.2924708E-04
   6501.00  6.3711808E-04
   6501.50  6.4518162E-04
   6502.00  6.5344486E-04
   6502.50  6.6191531E-04
   6503.00  6.7060089E-04
   6503.50  6.7950991E-04
   6504.00  6.8865110E-04
   6504.50  6.9803366E-04
   6505.00  7.0766730E-04
   6505.50  7.1756222E-04
   6506.00  7.2772920E-04
   6506.50  7.3817961E-04
   6507.00  7.4892548E-04
   6507.50  7.5997950E-04
   6508.00  7.7135510E-04
   6508.50  7.8306651E-04
   6509.00  7.9512880E-04
   6509.50  8.0755795E-04
   6510.00  8.2037092E-04
   6510.50  8.3358573E-04
   6511.00  8.4722153E-04
   6511.50  8.6129871E-04
   6512.00  8.7583899E-04
   6512.50  8.9086551E-04
   6513.00  9.0640300E-04
   6513.50  9.2247786E-04
   6514.00  9.3911834E-04
   6514.50  9.5635469E-04
   6515.00  9.7421933E-04
   6515.50  9.9274709E-04
   6516.00  1.0119754E-03
   6516.50  1.0319444E-03
   6517.00  1.0526977E-03
   6517.50  1.0742819E-03
   6518.00  1.0967477E-03
   6518.50  1.1201498E-03
   6519.00  1.1445476E-03
   6519.50  1.1700056E-03
   6520.00  1.1965937E-03
   6520.50  1.2243885E-03
   6521.00  1.2534732E-03
   6521.50  1.2839391E-03
   6522.00  1.3158860E-03
   6522.50  1.3494236E-03
   6523.00  1.3846729E-03
   6523.50  1.4217671E-03
   6524.00  1.4608536E-03
   6524.50  1.5020959E-03
   6525.00  1.5456760E-03
   6525.50  1.5917967E-03
   6526.00  1.6406849E-03
   6526.50  1.6925957E-03
   6527.00  1.7478163E-03
   6527.50  1.8066715E-03
   6528.00  1.8695305E-03
   6528.50  1.9368143E-03
   6529.00  2.0090057E-03
   6529.50  2.0866614E-03
   6530.00  2.1704264E-03
   6530.50  2.2610535E-03
   6531.00  2.3594274E-03
   6531.50  2.4665958E-03
   6532.00  2.5838109E-03
   6532.50  2.7125843E-03
   6533.00  2.8547633E-03
   6533.50  3.0126361E-03
   6534.00  3.1890853E-03
   6534.10  3.2269126E-03
   6534.20  3.2656620E-03
   6534.30  3.3053699E-03
   6534.40  3.3460749E-03
   6534.50  3.3878179E-03
   6534.60  3.4306424E-03
   6534.70  3.4745945E-03
   6534.80  3.5197235E-03
   6534.90  3.5660817E-03
   6535.00  3.6137252E-03
   6535.10  3.6627140E-03
   6535.20  3.7131125E-03
   6535.30  3.7649897E-03
   6535.40  3.8184201E-03
   6535.50  3.8734842E-03
   6535.60  3.9302690E-03
   6535.70  3.9888690E-03
   6535.80  4.0493870E-03
   6535.90  4.1119354E-03
   6536.00  4.1766373E-03
   6536.10  4.2436282E-03
   6536.20  4.3130577E-03
   6536.30  4.3850918E-03
   6536.40  4.4599152E-03
   6536.50  4.5377353E-03
   6536.60  4.6187851E-03
   6536.70  4.7033290E-03
   6536.80  4.7916681E-03
   6536.90  4.8841480E-03
   6537.00  4.9811683E-03
   6537.10  5.0831943E-03
   6537.20  5.1907724E-03
   6537.30  5.3045496E-03
   6537.40  5.4252990E-03
   6537.50  5.5539521E-03
   6537.60  5.6916414E-03
   6537.70  5.8397553E-03
   6537.80  6.0000073E-03
   6537.90  6.1745226E-03
   6538.00  6.3659386E-03
   6538.10  6.5775093E-03
   6538.20  6.8131772E-03
   6538.30  7.0775298E-03
   6538.40  7.3754689E-03
   6538.50  7.7112857E-03
   6538.60  8.0867428E-03
   6538.70  8.4979879E-03
   6538.80  8.9321210E-03
   6538.90  9.3660374E-03
   6539.00  9.7707625E-03
   6539.10  1.0119463E-02
   6539.20  1.0398027E-02
   6539.30  1.0609588E-02
   6539.40  1.0771410E-02
   6539.50  1.0907951E-02
   6539.60  1.1044523E-02
   6539.70  1.1203253E-02
   6539.80  1.1401192E-02
   6539.90  1.1650202E-02
   6540.00  1.1958038E-02
   6540.10  1.2329957E-02
   6540.20  1.2770249E-02
   6540.30  1.3283418E-02
   6540.40  1.3874997E-02
   6540.50  1.4552075E-02
   6540.60  1.5323642E-02
   6540.70  1.6200844E-02
   6540.80  1.7197190E-02
   6540.90  1.8328726E-02
   6541.00  1.9614122E-02
   6541.10  2.1074580E-02
   6541.20  2.2733398E-02
   6541.30  2.4614960E-02
   6541.40  2.6742847E-02
   6541.50  2.9136725E-02
   6541.60  3.1807712E-02
   6541.70  3.4752216E-02
   6541.80  3.7944842E-02
   6541.90  4.1332059E-02
   6542.00  4.4829518E-02
   6542.10  4.8326472E-02
   6542.20  5.1699423E-02
   6542.30  5.4833358E-02
   6542.40  5.7644252E-02
   6542.50  6.0094287E-02
   6542.60  6.2194042E-02
   6542.70  6.3992239E-02
   6542.80  6.5558999E-02
   6542.90  6.6969808E-02
   6543.00  6.8294677E-02
   6543.10  6.9593062E-02
   6543.20  7.0912047E-02
   6543.30  7.2284303E-02
   6543.40  7.3723434E-02
   6543.50  7.5217226E-02
   6543.60  7.6722666E-02
   6543.70  7.8168437E-02
   6543.80  7.9468873E-02
   6543.90  8.0547654E-02
   6544.00  8.1362450E-02
   6544.20  8.2268605E-02
   6544.40  8.2679369E-02
   6544.60  8.3268190E-02
   6544.80  8.4510972E-02
   6545.00  8.6614457E-02
   6545.20  8.9607447E-02
   6545.40  9.3479129E-02
   6545.60  9.8280928E-02
   6545.80  1.0413737E-01
   6546.00  1.1117358E-01
   6546.20  1.1940766E-01
   6546.40  1.2866727E-01
   6546.60  1.3857982E-01
   6546.80  1.4864371E-01
   6547.00  1.5833995E-01
   6547.20  1.6725257E-01
   6547.40  1.7520105E-01
   6547.60  1.8235722E-01
   6547.80  1.8924748E-01
   6548.00  1.9655593E-01
   6548.20  2.0479276E-01
   6548.40  2.1401339E-01
   6548.60  2.2372490E-01
   6548.80  2.3300840E-01
   6549.00  2.4081128E-01
   6549.20  2.4628673E-01
   6549.40  2.4901685E-01
   6549.60  2.4903514E-01
   6549.80  2.4670040E-01
   6550.00  2.4253066E-01
   6550.20  2.3706905E-01
   6550.40  2.3080196E-01
   6550.60  2.2412326E-01
   6550.80  2.1733022E-01
   6551.00  2.1063504E-01
   6551.20  2.0417945E-01
   6551.40  1.9804687E-01
   6551.60  1.9227310E-01
   6551.80  1.8685871E-01
   6552.00  1.8178436E-01
   6552.20  1.7702664E-01
   6552.40  1.7257011E-01
   6552.60  1.6841234E-01
   6552.80  1.6456167E-01
   6553.00  1.6103038E-01
   6553.20  1.5782697E-01
   6553.40  1.5495070E-01
   6553.60  1.5238966E-01
   6553.80  1.5012209E-01
   6554.00  1.4811968E-01
   6554.20  1.4635110E-01
   6554.40  1.4478492E-01
   6554.60  1.4339132E-01
   6554.80  1.4214273E-01
   6555.00  1.4101391E-01
   6555.20  1.3998184E-01
   6555.40  1.3902570E-01
   6555.60  1.3812711E-01
   6555.80  1.3727053E-01
   6556.00  1.3644359E-01
   6556.20  1.3563739E-01
   6556.40  1.3484645E-01
   6556.60  1.3406847E-01
   6556.80  1.3330383E-01
   6557.00  1.3255491E-01
   6557.20  1.3182523E-01
   6557.40  1.3111872E-01
   6557.60  1.3043889E-01
   6557.80  1.2978838E-01
   6558.00  1.2916850E-01
   6558.20  1.2857912E-01
   6558.40  1.2801868E-01
   6558.60  1.2748443E-01
   6558.80  1.2697269E-01
   6559.00  1.2647920E-01
   6560.00  1.2413977E-01
   6561.00  1.2177857E-01
   6562.00  1.1933133E-01
   6563.00  1.1681076E-01
   6564.00  1.1424587E-01
   6565.00  1.1184273E-01
   6566.00  1.0991249E-01
   6567.00  1.0862168E-01
   6568.00  1.0793442E-01
   6569.00  1.0775463E-01
   6570.00  1.0801922E-01
   6571.00  1.0867031E-01
   6572.00  1.0961717E-01
   6573.00  1.1075175E-01
   6574.00  1.1199284E-01
   6575.00  1.1332109E-01
   6576.00  1.1478225E-01
   6577.00  1.1645661E-01
   6578.00  1.1842010E-01
   6579.00  1.2072470E-01
   6580.00  1.2339803E-01
   6581.00  1.2644345E-01
   6582.00  1.2983046E-01
   6583.00  1.3348130E-01
   6584.00  1.3726568E-01
   6585.00  1.4101138E-01
   6586.00  1.4453096E-01
   6587.00  1.4765582E-01
   6588.00  1.5026530E-01
   6589.00  1.5230194E-01
   6590.00  1.5376997E-01
   6591.00  1.5471948E-01
   6592.00  1.5522309E-01
   6593.00  1.5535432E-01
   6594.00  1.5517462E-01
   6595.00  1.5473011E-01
   6596.00  1.5405434E-01
   6597.00  1.5317263E-01
   6598.00  1.5210497E-01
   6599.00  1.5086781E-01
   6600.00  1.4947661E-01
   6601.00  1.4794981E-01
   6602.00  1.4631290E-01
   6603.00  1.4460043E-01
   6604.00  1.4285501E-01
   6605.00  1.4112387E-01
   6606.00  1.3945395E-01
   6607.00  1.3788691E-01
   6608.00  1.3645521E-01
   6609.00  1.3518052E-01
   6610.00  1.3407473E-01
   6611.00  1.3314308E-01
   6612.00  1.3238754E-01
   6613.00  1.3180913E-01
   6614.00  1.3140851E-01
   6615.00  1.3118570E-01
   6616.00  1.3113981E-01
   6617.00  1.3126917E-01
   6618.00  1.3157113E-01
   6619.00  1.3204083E-01
   6620.00  1.3266882E-01
   6621.00  1.3343933E-01
   6622.00  1.3433092E-01
   6623.00  1.3532025E-01
   6624.00  1.3638753E-01
   6625.00  1.3752133E-01
   6626.00  1.3872088E-01
   6627.00  1.3999517E-01
   6628.00  1.4135970E-01
   6629.00  1.4283185E-01
   6630.00  1.4442557E-01
   6631.00  1.4614602E-01
   6632.00  1.4798513E-01
   6633.00  1.4991933E-01
   6634.00  1.5191040E-01
   6635.00  1.5390978E-01
   6636.00  1.5586533E-01
   6637.00  1.5772861E-01
   6638.00  1.5946099E-01
   6639.00  1.6103719E-01
