    Energy    <xanes>    
   6499.00  2.6914199E-04
   6499.50  2.7231628E-04
   6500.00  2.7560388E-04
   6500.50  2.7896687E-04
   6501.00  2.8240787E-04
   6501.50  2.8592959E-04
   6502.00  2.8953490E-04
   6502.50  2.9322680E-04
   6503.00  2.9700840E-04
   6503.50  3.0088300E-04
   6504.00  3.0485405E-04
   6504.50  3.0892518E-04
   6505.00  3.1310018E-04
   6505.50  3.1738305E-04
   6506.00  3.2177801E-04
   6506.50  3.2628948E-04
   6507.00  3.3092212E-04
   6507.50  3.3568084E-04
   6508.00  3.4057084E-04
   6508.50  3.4559757E-04
   6509.00  3.5076681E-04
   6509.50  3.5608467E-04
   6510.00  3.6155761E-04
   6510.50  3.6719246E-04
   6511.00  3.7299645E-04
   6511.50  3.7897728E-04
   6512.00  3.8514309E-04
   6512.50  3.9150252E-04
   6513.00  3.9806479E-04
   6513.50  4.0483968E-04
   6514.00  4.1183763E-04
   6514.50  4.1906975E-04
   6515.00  4.2654791E-04
   6515.50  4.3428481E-04
   6516.00  4.4229400E-04
   6516.50  4.5059001E-04
   6517.00  4.5918843E-04
   6517.50  4.6810599E-04
   6518.00  4.7736065E-04
   6518.50  4.8697178E-04
   6519.00  4.9696024E-04
   6519.50  5.0734855E-04
   6520.00  5.1816105E-04
   6520.50  5.2942409E-04
   6521.00  5.4116628E-04
   6521.50  5.5341867E-04
   6522.00  5.6621506E-04
   6522.50  5.7959232E-04
   6523.00  5.9359071E-04
   6523.50  6.0825434E-04
   6524.00  6.2363157E-04
   6524.50  6.3977562E-04
   6525.00  6.5674513E-04
   6525.50  6.7460493E-04
   6526.00  6.9342686E-04
   6526.50  7.1329075E-04
   6527.00  7.3428564E-04
   6527.50  7.5651107E-04
   6528.00  7.8007881E-04
   6528.50  8.0511476E-04
   6529.00  8.3176136E-04
   6529.50  8.6018045E-04
   6530.00  8.9055680E-04
   6530.50  9.2310245E-04
   6531.00  9.5806216E-04
   6531.50  9.9572020E-04
   6532.00  1.0364091E-03
   6532.50  1.0805208E-03
   6533.00  1.1285216E-03
   6533.50  1.1809718E-03
   6534.00  1.2385522E-03
   6534.10  1.2508841E-03
   6534.20  1.2634344E-03
   6534.30  1.2761505E-03
   6534.40  1.2890379E-03
   6534.50  1.3021024E-03
   6534.60  1.3157702E-03
   6534.70  1.3296952E-03
   6534.80  1.3438161E-03
   6534.90  1.3581399E-03
   6535.00  1.3726737E-03
   6535.10  1.3879272E-03
   6535.20  1.4034875E-03
   6535.30  1.4192821E-03
   6535.40  1.4353199E-03
   6535.50  1.4516104E-03
   6535.60  1.4687744E-03
   6535.70  1.4863103E-03
   6535.80  1.5041308E-03
   6535.90  1.5222477E-03
   6536.00  1.5406738E-03
   6536.01  1.5432799E-03
   6536.11  1.5625726E-03
   6536.21  1.5823888E-03
   6536.31  1.6027533E-03
   6536.41  1.6236927E-03
   6536.51  1.6452357E-03
   6536.61  1.6674134E-03
   6536.71  1.6902594E-03
   6536.81  1.7138103E-03
   6536.91  1.7381059E-03
   6537.01  1.7631900E-03
   6537.11  1.7891105E-03
   6537.21  1.8159206E-03
   6537.31  1.8436788E-03
   6537.41  1.8724510E-03
   6537.51  1.9023105E-03
   6537.61  1.9333407E-03
   6537.71  1.9656358E-03
   6537.81  1.9993043E-03
   6537.91  2.0344708E-03
   6538.01  2.0712807E-03
   6538.11  2.1099035E-03
   6538.21  2.1505387E-03
   6538.31  2.1934198E-03
   6538.41  2.2388180E-03
   6538.51  2.2870399E-03
   6538.61  2.3384146E-03
   6538.71  2.3932614E-03
   6538.81  2.4518355E-03
   6538.91  2.5142643E-03
   6539.01  2.5805375E-03
   6539.11  2.6505239E-03
   6539.21  2.7237478E-03
   6539.31  2.7996721E-03
   6539.41  2.8780938E-03
   6539.51  2.9595822E-03
   6539.61  3.0455802E-03
   6539.71  3.1380211E-03
   6539.81  3.2388303E-03
   6539.91  3.3497551E-03
   6540.01  3.4726136E-03
   6540.11  3.6097320E-03
   6540.21  3.7642595E-03
   6540.31  3.9402376E-03
   6540.41  4.1425758E-03
   6540.51  4.3770845E-03
   6540.61  4.6505004E-03
   6540.71  4.9702343E-03
   6540.81  5.3433956E-03
   6540.91  5.7744269E-03
   6541.01  6.2605638E-03
   6541.11  6.7849178E-03
   6541.21  7.3096007E-03
   6541.31  7.7775776E-03
   6541.41  8.1324315E-03
   6541.51  8.3503650E-03
   6541.61  8.4566503E-03
   6541.71  8.5078860E-03
   6541.81  8.5581269E-03
   6541.91  8.6375228E-03
   6542.01  8.7510879E-03
   6542.11  8.8892632E-03
   6542.21  9.0408338E-03
   6542.31  9.2020947E-03
   6542.41  9.3794877E-03
   6542.51  9.5865835E-03
   6542.61  9.8390118E-03
   6542.71  1.0150869E-02
   6542.81  1.0533619E-02
   6542.91  1.0996203E-02
   6543.01  1.1544875E-02
   6543.11  1.2182272E-02
   6543.21  1.2906134E-02
   6543.31  1.3708337E-02
   6543.41  1.4574914E-02
   6543.51  1.5487567E-02
   6543.61  1.6426696E-02
   6543.71  1.7375187E-02
   6543.81  1.8321399E-02
   6543.91  1.9259843E-02
   6544.01  2.0188573E-02
   6544.11  2.1104695E-02
   6544.21  2.2010976E-02
   6544.31  2.2894200E-02
   6544.41  2.3733603E-02
   6544.51  2.4548064E-02
   6544.61  2.5318764E-02
   6544.71  2.6087314E-02
   6544.81  2.6854592E-02
   6544.91  2.7652128E-02
   6545.01  2.8485310E-02
   6545.11  2.9365201E-02
   6545.21  3.0293766E-02
   6545.31  3.1266705E-02
   6545.41  3.2287727E-02
   6545.51  3.3342756E-02
   6545.61  3.4438390E-02
   6545.71  3.5563067E-02
   6545.81  3.6711925E-02
   6545.91  3.7884717E-02
   6546.01  3.9056055E-02
   6546.21  4.1381779E-02
   6546.41  4.3598980E-02
   6546.61  4.5669947E-02
   6546.81  4.7611183E-02
   6547.01  4.9454658E-02
   6547.21  5.1226432E-02
   6547.41  5.2956975E-02
   6547.61  5.4691593E-02
   6547.81  5.6477410E-02
   6548.01  5.8340462E-02
   6548.21  6.0276923E-02
   6548.41  6.2259576E-02
   6548.61  6.4249022E-02
   6548.81  6.6208137E-02
   6549.01  6.8113211E-02
   6549.21  6.9950536E-02
   6549.41  7.1704238E-02
   6549.61  7.3354726E-02
   6549.81  7.4894611E-02
   6550.01  7.6346446E-02
   6550.21  7.7761837E-02
   6550.41  7.9199267E-02
   6550.61  8.0697427E-02
   6550.81  8.2260799E-02
   6551.01  8.3859673E-02
   6551.21  8.5438174E-02
   6551.41  8.6926141E-02
   6551.61  8.8253996E-02
   6551.81  8.9368648E-02
   6552.01  9.0246292E-02
   6552.21  9.0897516E-02
   6552.41  9.1362156E-02
   6552.61  9.1695373E-02
   6552.81  9.1950266E-02
   6553.01  9.2163067E-02
   6553.21  9.2344910E-02
   6553.41  9.2481668E-02
   6553.61  9.2541260E-02
   6553.81  9.2485697E-02
   6554.01  9.2283527E-02
   6554.21  9.1918470E-02
   6554.41  9.1392041E-02
   6554.61  9.0720625E-02
   6554.81  8.9929229E-02
   6555.01  8.9044619E-02
   6555.21  8.8090002E-02
   6555.41  8.7082392E-02
   6555.61  8.6032678E-02
   6555.81  8.4947506E-02
   6556.01  8.3831827E-02
   6556.21  8.2691118E-02
   6556.41  8.1532763E-02
   6556.61  8.0366511E-02
   6556.81  7.9204169E-02
   6557.01  7.8058776E-02
   6557.21  7.6943546E-02
   6557.41  7.5870812E-02
   6557.61  7.4851140E-02
   6557.81  7.3892727E-02
   6558.01  7.3001076E-02
   6558.21  7.2178956E-02
   6558.41  7.1426564E-02
   6558.61  7.0741855E-02
   6558.81  7.0120970E-02
   6559.01  6.9558959E-02
   6559.21  6.9052884E-02
   6559.41  6.8593183E-02
   6559.61  6.8171049E-02
   6559.81  6.7777959E-02
   6560.01  6.7408661E-02
   6560.21  6.7088733E-02
   6560.41  6.6776991E-02
   6560.61  6.6468561E-02
   6560.81  6.6159658E-02
   6561.01  6.5851943E-02
   6562.01  6.4527271E-02
   6563.01  6.3400486E-02
   6564.01  6.2514687E-02
   6565.01  6.1857279E-02
   6566.01  6.1356454E-02
   6567.01  6.0917491E-02
   6568.01  6.0462320E-02
   6569.01  5.9967769E-02
   6570.01  5.9480264E-02
   6571.01  5.9085783E-02
   6572.01  5.8855645E-02
   6573.01  5.8812128E-02
   6574.01  5.8930490E-02
   6575.01  5.9163250E-02
   6576.01  5.9465183E-02
   6577.01  5.9806570E-02
   6578.01  6.0174761E-02
   6579.01  6.0569224E-02
   6580.01  6.0994496E-02
   6581.01  6.1454720E-02
   6582.01  6.1952039E-02
   6583.01  6.2488196E-02
   6584.01  6.3066626E-02
   6585.01  6.3692995E-02
   6586.01  6.4374002E-02
   6587.01  6.5115184E-02
   6588.01  6.5918332E-02
   6589.01  6.6778608E-02
   6590.01  6.7681755E-02
   6591.01  6.8602611E-02
   6592.01  6.9506424E-02
   6593.01  7.0353372E-02
   6594.01  7.1104918E-02
   6595.01  7.1729639E-02
   6596.01  7.2206653E-02
   6597.01  7.2526300E-02
   6598.01  7.2688944E-02
   6599.01  7.2703079E-02
   6600.01  7.2583451E-02
   6601.01  7.2349269E-02
   6602.01  7.2022360E-02
   6603.01  7.1625399E-02
   6604.01  7.1180566E-02
   6605.01  7.0708732E-02
   6606.01  7.0228826E-02
   6607.01  6.9757068E-02
   6608.01  6.9306191E-02
   6609.01  6.8885177E-02
   6610.01  6.8499688E-02
   6611.01  6.8152902E-02
   6612.01  6.7846240E-02
   6613.01  6.7579785E-02
   6614.01  6.7352522E-02
   6615.01  6.7162678E-02
   6616.01  6.7008267E-02
   6617.01  6.6887781E-02
   6618.01  6.6800816E-02
   6619.01  6.6748435E-02
   6620.01  6.6733150E-02
   6621.01  6.6758422E-02
   6622.01  6.6827753E-02
   6623.01  6.6943538E-02
   6624.01  6.7105984E-02
   6625.01  6.7312415E-02
   6626.01  6.7557167E-02
   6627.01  6.7832003E-02
   6628.01  6.8126834E-02
   6629.01  6.8430527E-02
   6630.01  6.8731674E-02
   6631.01  6.9019304E-02
   6632.01  6.9283562E-02
   6633.01  6.9516356E-02
   6634.01  6.9711940E-02
   6635.01  6.9867342E-02
   6636.01  6.9982546E-02
   6637.01  7.0060352E-02
   6638.01  7.0105922E-02
