    Energy    <xanes>    
   7072.00  9.9039390E-04
   7072.50  1.0024768E-03
   7073.00  1.0148300E-03
   7073.50  1.0274623E-03
   7074.00  1.0403832E-03
   7074.50  1.0536023E-03
   7075.00  1.0671300E-03
   7075.50  1.0809768E-03
   7076.00  1.0951539E-03
   7076.50  1.1096730E-03
   7077.00  1.1245463E-03
   7077.50  1.1397867E-03
   7078.00  1.1554075E-03
   7078.50  1.1714229E-03
   7079.00  1.1878476E-03
   7079.50  1.2046971E-03
   7080.00  1.2219879E-03
   7080.50  1.2397368E-03
   7081.00  1.2579621E-03
   7081.50  1.2766827E-03
   7082.00  1.2959186E-03
   7082.50  1.3156907E-03
   7083.00  1.3360213E-03
   7083.50  1.3569339E-03
   7084.00  1.3784531E-03
   7084.50  1.4006051E-03
   7085.00  1.4234176E-03
   7085.50  1.4469198E-03
   7086.00  1.4711427E-03
   7086.50  1.4961191E-03
   7087.00  1.5218838E-03
   7087.50  1.5484740E-03
   7088.00  1.5759289E-03
   7088.50  1.6042903E-03
   7089.00  1.6336028E-03
   7089.50  1.6639138E-03
   7090.00  1.6952739E-03
   7090.50  1.7277373E-03
   7091.00  1.7613618E-03
   7091.50  1.7962091E-03
   7092.00  1.8323455E-03
   7092.50  1.8698423E-03
   7093.00  1.9087756E-03
   7093.50  1.9492277E-03
   7094.00  1.9912869E-03
   7094.50  2.0350485E-03
   7095.00  2.0806155E-03
   7095.50  2.1280992E-03
   7096.00  2.1776201E-03
   7096.50  2.2293090E-03
   7097.00  2.2833080E-03
   7097.50  2.3397717E-03
   7098.00  2.3988688E-03
   7098.50  2.4607835E-03
   7099.00  2.5257176E-03
   7099.50  2.5938924E-03
   7100.00  2.6655513E-03
   7100.50  2.7409625E-03
   7101.00  2.8204225E-03
   7101.50  2.9042597E-03
   7102.00  2.9928391E-03
   7102.50  3.0865674E-03
   7103.00  3.1858996E-03
   7103.50  3.2913462E-03
   7104.00  3.4034825E-03
   7104.50  3.5229595E-03
   7105.00  3.6505175E-03
   7105.50  3.7870030E-03
   7106.00  3.9333900E-03
   7106.50  4.0908075E-03
   7107.00  4.2605762E-03
   7107.10  4.2961447E-03
   7107.20  4.3322825E-03
   7107.30  4.3690041E-03
   7107.40  4.4063244E-03
   7107.50  4.4442589E-03
   7107.60  4.4828236E-03
   7107.70  4.5220355E-03
   7107.80  4.5619119E-03
   7107.90  4.6024711E-03
   7108.00  4.6437322E-03
   7108.10  4.6857151E-03
   7108.20  4.7284407E-03
   7108.30  4.7719308E-03
   7108.40  4.8162083E-03
   7108.50  4.8612976E-03
   7108.60  4.9072241E-03
   7108.70  4.9540146E-03
   7108.80  5.0016977E-03
   7108.90  5.0503036E-03
   7109.00  5.0998645E-03
   7109.10  5.1504148E-03
   7109.20  5.2019912E-03
   7109.30  5.2546335E-03
   7109.40  5.3083842E-03
   7109.50  5.3632897E-03
   7109.60  5.4194005E-03
   7109.70  5.4767720E-03
   7109.80  5.5354652E-03
   7109.90  5.5955478E-03
   7110.00  5.6570955E-03
   7110.10  5.7201934E-03
   7110.20  5.7849383E-03
   7110.30  5.8514409E-03
   7110.40  5.9198293E-03
   7110.50  5.9902525E-03
   7110.60  6.0628862E-03
   7110.70  6.1379387E-03
   7110.80  6.2156589E-03
   7110.90  6.2963463E-03
   7111.00  6.3803613E-03
   7111.10  6.4681365E-03
   7111.20  6.5601830E-03
   7111.30  6.6570869E-03
   7111.40  6.7594767E-03
   7111.50  6.8679381E-03
   7111.60  6.9828397E-03
   7111.70  7.1040491E-03
   7111.80  7.2305980E-03
   7111.90  7.3605098E-03
   7112.00  7.4912179E-03
   7112.10  7.6210042E-03
   7112.20  7.7485120E-03
   7112.30  7.8735827E-03
   7112.40  7.9970683E-03
   7112.50  8.1202425E-03
   7112.60  8.2443710E-03
   7112.70  8.3705316E-03
   7112.80  8.4995934E-03
   7112.90  8.6322463E-03
   7113.00  8.7690288E-03
   7113.10  8.9103443E-03
   7113.20  9.0564827E-03
   7113.30  9.2076603E-03
   7113.40  9.3640835E-03
   7113.50  9.5260249E-03
   7113.60  9.6938862E-03
   7113.70  9.8682209E-03
   7113.80  1.0049707E-02
   7113.90  1.0239088E-02
   7114.00  1.0437122E-02
   7114.10  1.0644543E-02
   7114.20  1.0862051E-02
   7114.30  1.1090321E-02
   7114.40  1.1330023E-02
   7114.50  1.1581835E-02
   7114.60  1.1846472E-02
   7114.70  1.2124696E-02
   7114.80  1.2417330E-02
   7114.90  1.2725267E-02
   7115.00  1.3049479E-02
   7115.10  1.3391028E-02
   7115.20  1.3751067E-02
   7115.30  1.4130857E-02
   7115.40  1.4531763E-02
   7115.50  1.4955276E-02
   7115.60  1.5403025E-02
   7115.70  1.5876796E-02
   7115.80  1.6378556E-02
   7115.90  1.6910475E-02
   7116.00  1.7474954E-02
   7116.10  1.8074656E-02
   7116.20  1.8712548E-02
   7116.30  1.9391947E-02
   7116.40  2.0116566E-02
   7116.50  2.0890540E-02
   7116.60  2.1718430E-02
   7116.70  2.2605182E-02
   7116.80  2.3556023E-02
   7116.90  2.4576279E-02
   7117.00  2.5671116E-02
   7117.20  2.8102591E-02
   7117.40  3.0878477E-02
   7117.60  3.4015673E-02
   7117.80  3.7530921E-02
   7118.00  4.1455085E-02
   7118.20  4.5842311E-02
   7118.40  5.0770322E-02
   7118.60  5.6331915E-02
   7118.80  6.2621018E-02
   7119.00  6.9715880E-02
   7119.20  7.7657760E-02
   7119.40  8.6423849E-02
   7119.60  9.5893025E-02
   7119.80  1.0580419E-01
   7120.00  1.1573703E-01
   7120.20  1.2517746E-01
   7120.40  1.3367665E-01
   7120.60  1.4100353E-01
   7120.80  1.4719113E-01
   7121.00  1.5248225E-01
   7121.20  1.5723804E-01
   7121.40  1.6185479E-01
   7121.60  1.6670596E-01
   7121.80  1.7211765E-01
   7122.00  1.7837642E-01
   7122.20  1.8574951E-01
   7122.40  1.9448591E-01
   7122.60  2.0477888E-01
   7122.80  2.1670008E-01
   7123.00  2.3013921E-01
   7123.20  2.4478607E-01
   7123.40  2.6017138E-01
   7123.60  2.7574972E-01
   7123.80  2.9098535E-01
   7124.00  3.0540565E-01
   7124.20  3.1861414E-01
   7124.40  3.3028274E-01
   7124.60  3.4015391E-01
   7124.80  3.4806945E-01
   7125.00  3.5401585E-01
   7125.20  3.5815520E-01
   7125.40  3.6081370E-01
   7125.60  3.6242302E-01
   7125.80  3.6343561E-01
   7126.00  3.6424461E-01
   7126.20  3.6513089E-01
   7126.40  3.6624434E-01
   7126.60  3.6761338E-01
   7126.80  3.6917158E-01
   7127.00  3.7079086E-01
   7127.20  3.7231413E-01
   7127.40  3.7358321E-01
   7127.60  3.7445991E-01
   7127.80  3.7483928E-01
   7128.00  3.7465538E-01
   7128.20  3.7388061E-01
   7128.40  3.7252055E-01
   7128.60  3.7060635E-01
   7128.80  3.6818644E-01
   7129.00  3.6531893E-01
   7129.20  3.6206550E-01
   7129.40  3.5848719E-01
   7129.60  3.5464201E-01
   7129.80  3.5058403E-01
   7130.00  3.4636333E-01
   7130.20  3.4202631E-01
   7130.40  3.3761575E-01
   7130.60  3.3317074E-01
   7130.80  3.2872628E-01
   7131.00  3.2431293E-01
   7131.20  3.1995658E-01
   7131.40  3.1567861E-01
   7131.60  3.1149622E-01
   7131.80  3.0742302E-01
   7132.00  3.0346966E-01
   7133.00  2.8573112E-01
   7134.00  2.7165469E-01
   7135.00  2.6134329E-01
   7136.00  2.5470799E-01
   7137.00  2.5133385E-01
   7138.00  2.5036253E-01
   7139.00  2.5067757E-01
   7140.00  2.5120830E-01
   7141.00  2.5108063E-01
   7142.00  2.4962971E-01
   7143.00  2.4643331E-01
   7144.00  2.4137197E-01
   7145.00  2.3463131E-01
   7146.00  2.2664188E-01
   7147.00  2.1799560E-01
   7148.00  2.0935221E-01
   7149.00  2.0134599E-01
   7150.00  1.9450956E-01
   7151.00  1.8922230E-01
   7152.00  1.8568909E-01
   7153.00  1.8395390E-01
   7154.00  1.8393668E-01
   7155.00  1.8547403E-01
   7156.00  1.8835207E-01
   7157.00  1.9233238E-01
   7158.00  1.9717565E-01
   7159.00  2.0266412E-01
   7160.00  2.0861728E-01
   7161.00  2.1489197E-01
   7162.00  2.2136328E-01
   7163.00  2.2789546E-01
   7164.00  2.3432018E-01
   7165.00  2.4043619E-01
   7166.00  2.4603288E-01
   7167.00  2.5092846E-01
   7168.00  2.5500694E-01
   7169.00  2.5823854E-01
   7170.00  2.6067630E-01
   7171.00  2.6243401E-01
   7172.00  2.6365752E-01
   7173.00  2.6449971E-01
   7174.00  2.6510188E-01
   7175.00  2.6558081E-01
   7176.00  2.6602098E-01
   7177.00  2.6647272E-01
   7178.00  2.6695450E-01
   7179.00  2.6745680E-01
   7180.00  2.6794713E-01
   7181.00  2.6837907E-01
   7182.00  2.6870746E-01
   7183.00  2.6890703E-01
   7184.00  2.6898610E-01
   7185.00  2.6898736E-01
   7186.00  2.6897347E-01
   7187.00  2.6900457E-01
   7188.00  2.6911857E-01
   7189.00  2.6932265E-01
   7190.00  2.6959660E-01
   7191.00  2.6990244E-01
   7192.00  2.7019387E-01
   7193.00  2.7042168E-01
   7194.00  2.7053517E-01
   7195.00  2.7048154E-01
   7196.00  2.7020525E-01
   7197.00  2.6964884E-01
   7198.00  2.6875550E-01
   7199.00  2.6747342E-01
   7200.00  2.6576112E-01
   7201.00  2.6359296E-01
   7202.00  2.6096420E-01
   7203.00  2.5789491E-01
   7204.00  2.5443224E-01
   7205.00  2.5064999E-01
   7206.00  2.4664491E-01
   7207.00  2.4252929E-01
   7208.00  2.3842091E-01
   7209.00  2.3443185E-01
   7210.00  2.3065834E-01
   7211.00  2.2717310E-01
   7212.00  2.2402132E-01
