    Energy    <xanes>    
   7072.00  1.0064922E-03
   7072.50  1.0188309E-03
   7073.00  1.0314481E-03
   7073.50  1.0443531E-03
   7074.00  1.0575556E-03
   7074.50  1.0710658E-03
   7075.00  1.0848945E-03
   7075.50  1.0990526E-03
   7076.00  1.1135519E-03
   7076.50  1.1284045E-03
   7077.00  1.1436233E-03
   7077.50  1.1592217E-03
   7078.00  1.1752136E-03
   7078.50  1.1916139E-03
   7079.00  1.2084381E-03
   7079.50  1.2257025E-03
   7080.00  1.2434240E-03
   7080.50  1.2616208E-03
   7081.00  1.2803118E-03
   7081.50  1.2995169E-03
   7082.00  1.3192571E-03
   7082.50  1.3395547E-03
   7083.00  1.3604329E-03
   7083.50  1.3819166E-03
   7084.00  1.4040318E-03
   7084.50  1.4268062E-03
   7085.00  1.4502689E-03
   7085.50  1.4744510E-03
   7086.00  1.4993852E-03
   7086.50  1.5251064E-03
   7087.00  1.5516515E-03
   7087.50  1.5790599E-03
   7088.00  1.6073734E-03
   7088.50  1.6366364E-03
   7089.00  1.6668965E-03
   7089.50  1.6982043E-03
   7090.00  1.7306138E-03
   7090.50  1.7641829E-03
   7091.00  1.7989734E-03
   7091.50  1.8350515E-03
   7092.00  1.8724886E-03
   7092.50  1.9113608E-03
   7093.00  1.9517505E-03
   7093.50  1.9937461E-03
   7094.00  2.0374429E-03
   7094.50  2.0829441E-03
   7095.00  2.1303611E-03
   7095.50  2.1798146E-03
   7096.00  2.2314355E-03
   7096.50  2.2853661E-03
   7097.00  2.3417615E-03
   7097.50  2.4007905E-03
   7098.00  2.4626377E-03
   7098.50  2.5275054E-03
   7099.00  2.5956153E-03
   7099.50  2.6672113E-03
   7100.00  2.7425625E-03
   7100.50  2.8219658E-03
   7101.00  2.9057505E-03
   7101.50  2.9942824E-03
   7102.00  3.0879692E-03
   7102.50  3.1872667E-03
   7103.00  3.2926862E-03
   7103.50  3.4048035E-03
   7104.00  3.5242700E-03
   7104.50  3.6518253E-03
   7105.00  3.7883138E-03
   7105.50  3.9347048E-03
   7106.00  4.0921183E-03
   7106.50  4.2618576E-03
   7107.00  4.4454536E-03
   7107.10  4.4839896E-03
   7107.20  4.5231676E-03
   7107.30  4.5630041E-03
   7107.40  4.6035167E-03
   7107.50  4.6447234E-03
   7107.60  4.6866430E-03
   7107.70  4.7292951E-03
   7107.80  4.7727001E-03
   7107.90  4.8168792E-03
   7108.00  4.8618548E-03
   7108.10  4.9076501E-03
   7108.20  4.9542893E-03
   7108.30  5.0017981E-03
   7108.40  5.0502030E-03
   7108.50  5.0995323E-03
   7108.60  5.1498156E-03
   7108.70  5.2010840E-03
   7108.80  5.2533706E-03
   7108.90  5.3067102E-03
   7109.00  5.3611401E-03
   7109.10  5.4166996E-03
   7109.20  5.4734310E-03
   7109.30  5.5313793E-03
   7109.40  5.5905931E-03
   7109.50  5.6511248E-03
   7109.60  5.7130311E-03
   7109.70  5.7763738E-03
   7109.80  5.8412207E-03
   7109.90  5.9076463E-03
   7110.00  5.9757332E-03
   7110.10  6.0455738E-03
   7110.20  6.1172718E-03
   7110.30  6.1909449E-03
   7110.40  6.2667277E-03
   7110.50  6.3447757E-03
   7110.60  6.4252696E-03
   7110.70  6.5084222E-03
   7110.80  6.5944850E-03
   7110.90  6.6837583E-03
   7111.00  6.7766010E-03
   7111.10  6.8734417E-03
   7111.20  6.9747877E-03
   7111.30  7.0812236E-03
   7111.40  7.1933900E-03
   7111.50  7.3119162E-03
   7111.60  7.4372789E-03
   7111.70  7.5695611E-03
   7111.80  7.7081498E-03
   7111.90  7.8515290E-03
   7112.00  7.9975678E-03
   7112.10  8.1447610E-03
   7112.20  8.2915050E-03
   7112.30  8.4371030E-03
   7112.40  8.5818389E-03
   7112.50  8.7266030E-03
   7112.60  8.8725281E-03
   7112.70  9.0207641E-03
   7112.80  9.1723740E-03
   7112.90  9.3283013E-03
   7113.00  9.4893736E-03
   7113.10  9.6563204E-03
   7113.20  9.8297934E-03
   7113.30  1.0010388E-02
   7113.40  1.0198667E-02
   7113.50  1.0395187E-02
   7113.60  1.0600516E-02
   7113.70  1.0815249E-02
   7113.80  1.1040013E-02
   7113.90  1.1275463E-02
   7114.00  1.1522293E-02
   7114.10  1.1781243E-02
   7114.20  1.2053105E-02
   7114.30  1.2338740E-02
   7114.40  1.2639085E-02
   7114.50  1.2955170E-02
   7114.60  1.3288125E-02
   7114.70  1.3639194E-02
   7114.80  1.4009745E-02
   7114.90  1.4401275E-02
   7115.00  1.4815425E-02
   7115.10  1.5253991E-02
   7115.20  1.5718940E-02
   7115.30  1.6212432E-02
   7115.40  1.6736841E-02
   7115.50  1.7294784E-02
   7115.60  1.7889154E-02
   7115.70  1.8523157E-02
   7115.80  1.9200348E-02
   7115.90  1.9924677E-02
   7116.00  2.0700537E-02
   7116.10  2.1532809E-02
   7116.20  2.2426908E-02
   7116.30  2.3388792E-02
   7116.40  2.4424926E-02
   7116.50  2.5542164E-02
   7116.60  2.6747492E-02
   7116.70  2.8047643E-02
   7116.80  2.9448573E-02
   7116.90  3.0954924E-02
   7117.00  3.2569619E-02
   7117.20  3.6126904E-02
   7117.40  4.0114567E-02
   7117.60  4.4526426E-02
   7117.80  4.9382980E-02
   7118.00  5.4743290E-02
   7118.20  6.0692541E-02
   7118.40  6.7315758E-02
   7118.60  7.4671575E-02
   7118.80  8.2765185E-02
   7119.00  9.1517123E-02
   7119.20  1.0074398E-01
   7119.40  1.1016258E-01
   7119.60  1.1940651E-01
   7119.80  1.2807158E-01
   7120.00  1.3583503E-01
   7120.20  1.4260417E-01
   7120.40  1.4856028E-01
   7120.60  1.5406141E-01
   7120.80  1.5950975E-01
   7121.00  1.6527395E-01
   7121.20  1.7165559E-01
   7121.40  1.7886475E-01
   7121.60  1.8701271E-01
   7121.80  1.9613918E-01
   7122.00  2.0625290E-01
   7122.20  2.1734692E-01
   7122.40  2.2937604E-01
   7122.60  2.4221738E-01
   7122.80  2.5564524E-01
   7123.00  2.6934158E-01
   7123.20  2.8294420E-01
   7123.40  2.9611181E-01
   7123.60  3.0857204E-01
   7123.80  3.2012972E-01
   7124.00  3.3064397E-01
   7124.20  3.4000429E-01
   7124.40  3.4812779E-01
   7124.60  3.5497595E-01
   7124.80  3.6057419E-01
   7125.00  3.6502071E-01
   7125.20  3.6847895E-01
   7125.40  3.7115394E-01
   7125.60  3.7325771E-01
   7125.80  3.7497170E-01
   7126.00  3.7641622E-01
   7126.20  3.7763485E-01
   7126.40  3.7859811E-01
   7126.60  3.7922465E-01
   7126.80  3.7941318E-01
   7127.00  3.7907516E-01
   7127.20  3.7815920E-01
   7127.40  3.7666156E-01
   7127.60  3.7462281E-01
   7127.80  3.7211459E-01
   7128.00  3.6922280E-01
   7128.20  3.6603249E-01
   7128.40  3.6261759E-01
   7128.60  3.5903594E-01
   7128.80  3.5532892E-01
   7129.00  3.5152369E-01
   7129.20  3.4763704E-01
   7129.40  3.4367946E-01
   7129.60  3.3965896E-01
   7129.80  3.3558408E-01
   7130.00  3.3146586E-01
   7130.20  3.2731857E-01
   7130.40  3.2315946E-01
   7130.60  3.1900770E-01
   7130.80  3.1488310E-01
   7131.00  3.1080480E-01
   7131.20  3.0679039E-01
   7131.40  3.0285546E-01
   7131.60  2.9901356E-01
   7131.80  2.9527646E-01
   7132.00  2.9165449E-01
   7133.00  2.7556677E-01
   7134.00  2.6340803E-01
   7135.00  2.5546506E-01
   7136.00  2.5130929E-01
   7137.00  2.4987704E-01
   7138.00  2.4982080E-01
   7139.00  2.4991242E-01
   7140.00  2.4924543E-01
   7141.00  2.4725261E-01
   7142.00  2.4368408E-01
   7143.00  2.3856192E-01
   7144.00  2.3209053E-01
   7145.00  2.2458646E-01
   7146.00  2.1648098E-01
   7147.00  2.0832588E-01
   7148.00  2.0072534E-01
   7149.00  1.9423105E-01
   7150.00  1.8926570E-01
   7151.00  1.8608581E-01
   7152.00  1.8477242E-01
   7153.00  1.8524511E-01
   7154.00  1.8729726E-01
   7155.00  1.9064552E-01
   7156.00  1.9498064E-01
   7157.00  2.0000749E-01
   7158.00  2.0547053E-01
   7159.00  2.1116802E-01
   7160.00  2.1695646E-01
   7161.00  2.2274162E-01
   7162.00  2.2845579E-01
   7163.00  2.3402999E-01
   7164.00  2.3937498E-01
   7165.00  2.4437961E-01
   7166.00  2.4892534E-01
   7167.00  2.5291003E-01
   7168.00  2.5627269E-01
   7169.00  2.5901080E-01
   7170.00  2.6118297E-01
   7171.00  2.6289471E-01
   7172.00  2.6427218E-01
   7173.00  2.6543325E-01
   7174.00  2.6646520E-01
   7175.00  2.6741394E-01
   7176.00  2.6828592E-01
   7177.00  2.6905966E-01
   7178.00  2.6970125E-01
   7179.00  2.7017831E-01
   7180.00  2.7046945E-01
   7181.00  2.7056959E-01
   7182.00  2.7049257E-01
   7183.00  2.7027081E-01
   7184.00  2.6995015E-01
   7185.00  2.6957947E-01
   7186.00  2.6919773E-01
   7187.00  2.6882478E-01
   7188.00  2.6846054E-01
   7189.00  2.6809247E-01
   7190.00  2.6770585E-01
   7191.00  2.6729038E-01
   7192.00  2.6684019E-01
   7193.00  2.6634848E-01
   7194.00  2.6580031E-01
   7195.00  2.6516726E-01
   7196.00  2.6440622E-01
   7197.00  2.6346323E-01
   7198.00  2.6228143E-01
   7199.00  2.6081091E-01
   7200.00  2.5901792E-01
   7201.00  2.5689107E-01
   7202.00  2.5444324E-01
   7203.00  2.5170966E-01
   7204.00  2.4874326E-01
   7205.00  2.4560939E-01
   7206.00  2.4238090E-01
   7207.00  2.3913385E-01
   7208.00  2.3594336E-01
   7209.00  2.3287907E-01
   7210.00  2.3000039E-01
   7211.00  2.2735218E-01
   7212.00  2.2496177E-01
