    Energy    <xanes>    
   7072.00  2.6242092E-04
   7072.50  2.6558835E-04
   7073.00  2.6882764E-04
   7073.50  2.7214124E-04
   7074.00  2.7553168E-04
   7074.50  2.7900164E-04
   7075.00  2.8255392E-04
   7075.50  2.8619144E-04
   7076.00  2.8991726E-04
   7076.50  2.9373460E-04
   7077.00  2.9764681E-04
   7077.50  3.0165743E-04
   7078.00  3.0577017E-04
   7078.50  3.0998893E-04
   7079.00  3.1431780E-04
   7079.50  3.1876108E-04
   7080.00  3.2332331E-04
   7080.50  3.2800926E-04
   7081.00  3.3282395E-04
   7081.50  3.3777269E-04
   7082.00  3.4286107E-04
   7082.50  3.4809499E-04
   7083.00  3.5348070E-04
   7083.50  3.5902480E-04
   7084.00  3.6473426E-04
   7084.50  3.7061648E-04
   7085.00  3.7667931E-04
   7085.50  3.8293105E-04
   7086.00  3.8938053E-04
   7086.50  3.9603713E-04
   7087.00  4.0291083E-04
   7087.50  4.1001225E-04
   7088.00  4.1735271E-04
   7088.50  4.2494428E-04
   7089.00  4.3279984E-04
   7089.50  4.4093319E-04
   7090.00  4.4935904E-04
   7090.50  4.5809321E-04
   7091.00  4.6715262E-04
   7091.50  4.7655546E-04
   7092.00  4.8632128E-04
   7092.50  4.9647113E-04
   7093.00  5.0702770E-04
   7093.50  5.1801547E-04
   7094.00  5.2946093E-04
   7094.50  5.4139273E-04
   7095.00  5.5384195E-04
   7095.50  5.6684235E-04
   7096.00  5.8043064E-04
   7096.50  5.9464685E-04
   7097.00  6.0953469E-04
   7097.50  6.2514195E-04
   7098.00  6.4152104E-04
   7098.50  6.5872953E-04
   7099.00  6.7683082E-04
   7099.50  6.9589484E-04
   7100.00  7.1599900E-04
   7100.50  7.3722913E-04
   7101.00  7.5968071E-04
   7101.50  7.8346027E-04
   7102.00  8.0868699E-04
   7102.50  8.3549472E-04
   7103.00  8.6403426E-04
   7103.50  8.9447619E-04
   7104.00  9.2701426E-04
   7104.50  9.6186955E-04
   7105.00  9.9929554E-04
   7105.50  1.0395845E-03
   7106.00  1.0830755E-03
   7106.50  1.1301646E-03
   7107.00  1.1813185E-03
   7107.10  1.1920841E-03
   7107.20  1.2030391E-03
   7107.30  1.2141885E-03
   7107.40  1.2255378E-03
   7107.50  1.2370924E-03
   7107.60  1.2488580E-03
   7107.70  1.2608407E-03
   7107.80  1.2730467E-03
   7107.90  1.2854825E-03
   7108.00  1.2981548E-03
   7108.10  1.3110709E-03
   7108.20  1.3242380E-03
   7108.30  1.3376639E-03
   7108.40  1.3513568E-03
   7108.50  1.3653252E-03
   7108.60  1.3795781E-03
   7108.70  1.3941249E-03
   7108.80  1.4089756E-03
   7108.90  1.4241407E-03
   7109.00  1.4396313E-03
   7109.10  1.4554593E-03
   7109.20  1.4716374E-03
   7109.30  1.4881788E-03
   7109.40  1.5050982E-03
   7109.50  1.5224109E-03
   7109.60  1.5401337E-03
   7109.70  1.5582848E-03
   7109.80  1.5768841E-03
   7109.90  1.5959534E-03
   7110.00  1.6155165E-03
   7110.10  1.6356005E-03
   7110.20  1.6562352E-03
   7110.30  1.6774546E-03
   7110.40  1.6992976E-03
   7110.50  1.7218088E-03
   7110.60  1.7450402E-03
   7110.70  1.7690527E-03
   7110.80  1.7939187E-03
   7110.90  1.8197239E-03
   7111.00  1.8465706E-03
   7111.10  1.8745799E-03
   7111.20  1.9038926E-03
   7111.30  1.9346656E-03
   7111.40  1.9670592E-03
   7111.50  2.0012065E-03
   7111.60  2.0371547E-03
   7111.70  2.0747772E-03
   7111.80  2.1136808E-03
   7111.90  2.1531817E-03
   7112.00  2.1925281E-03
   7112.10  2.2312302E-03
   7112.20  2.2689715E-03
   7112.30  2.3058843E-03
   7112.40  2.3424336E-03
   7112.50  2.3792231E-03
   7112.60  2.4168459E-03
   7112.70  2.4558096E-03
   7112.80  2.4965194E-03
   7112.90  2.5392902E-03
   7113.00  2.5843686E-03
   7113.10  2.6319524E-03
   7113.20  2.6822070E-03
   7113.30  2.7352774E-03
   7113.40  2.7912991E-03
   7113.50  2.8504073E-03
   7113.60  2.9127441E-03
   7113.70  2.9784642E-03
   7113.80  3.0477387E-03
   7113.90  3.1207578E-03
   7114.00  3.1977328E-03
   7114.10  3.2788991E-03
   7114.20  3.3645174E-03
   7114.30  3.4548767E-03
   7114.40  3.5502971E-03
   7114.50  3.6511326E-03
   7114.60  3.7577754E-03
   7114.70  3.8706600E-03
   7114.80  3.9902680E-03
   7114.90  4.1171345E-03
   7115.00  4.2518545E-03
   7115.10  4.3950905E-03
   7115.20  4.5475817E-03
   7115.30  4.7101540E-03
   7115.40  4.8837327E-03
   7115.50  5.0693561E-03
   7115.60  5.2681924E-03
   7115.70  5.4815591E-03
   7115.80  5.7109457E-03
   7115.90  5.9580405E-03
   7116.00  6.2247614E-03
   7116.10  6.5132906E-03
   7116.20  6.8261123E-03
   7116.30  7.1660494E-03
   7116.40  7.5362977E-03
   7116.50  7.9404475E-03
   7116.60  8.3824785E-03
   7116.70  8.8667103E-03
   7116.80  9.3976823E-03
   7116.90  9.9799485E-03
   7117.00  1.0617786E-02
   7117.20  1.2073746E-02
   7117.40  1.3780979E-02
   7117.60  1.5732355E-02
   7117.80  1.7897605E-02
   7118.00  2.0222566E-02
   7118.20  2.2633469E-02
   7118.40  2.5060280E-02
   7118.60  2.7463222E-02
   7118.80  2.9835783E-02
   7119.00  3.2190275E-02
   7119.20  3.4551708E-02
   7119.40  3.6962442E-02
   7119.60  3.9472630E-02
   7119.80  4.2107022E-02
   7120.00  4.4831568E-02
   7120.20  4.7550306E-02
   7120.40  5.0147326E-02
   7120.60  5.2555156E-02
   7120.80  5.4803145E-02
   7121.00  5.7006980E-02
   7121.20  5.9307006E-02
   7121.40  6.1803254E-02
   7121.60  6.4525854E-02
   7121.80  6.7441318E-02
   7122.00  7.0473301E-02
   7122.20  7.3522407E-02
   7122.40  7.6481021E-02
   7122.60  7.9240325E-02
   7122.80  8.1689900E-02
   7123.00  8.3720829E-02
   7123.20  8.5242717E-02
   7123.40  8.6209183E-02
   7123.60  8.6635052E-02
   7123.80  8.6593912E-02
   7124.00  8.6198859E-02
   7124.20  8.5578024E-02
   7124.40  8.4855301E-02
   7124.60  8.4139902E-02
   7124.80  8.3522099E-02
   7125.00  8.3071044E-02
   7125.20  8.2832924E-02
   7125.40  8.2830188E-02
   7125.60  8.3062744E-02
   7125.80  8.3510788E-02
   7126.00  8.4138167E-02
   7126.20  8.4895475E-02
   7126.40  8.5722979E-02
   7126.60  8.6554021E-02
   7126.80  8.7319424E-02
   7127.00  8.7952948E-02
   7127.20  8.8397180E-02
   7127.40  8.8608895E-02
   7127.60  8.8562860E-02
   7127.80  8.8253274E-02
   7128.00  8.7692527E-02
   7128.20  8.6907573E-02
   7128.40  8.5934779E-02
   7128.60  8.4814439E-02
   7128.80  8.3586050E-02
   7129.00  8.2285039E-02
   7129.20  8.0941085E-02
   7129.40  7.9577773E-02
   7129.60  7.8213120E-02
   7129.80  7.6860543E-02
   7130.00  7.5529931E-02
   7130.20  7.4228663E-02
   7130.40  7.2962472E-02
   7130.60  7.1736105E-02
   7130.80  7.0553770E-02
   7131.00  6.9419380E-02
   7131.20  6.8336601E-02
   7131.40  6.7308790E-02
   7131.60  6.6338855E-02
   7131.80  6.5429114E-02
   7132.00  6.4581179E-02
   7133.00  6.1271962E-02
   7134.00  5.9355563E-02
   7135.00  5.8466695E-02
   7136.00  5.8201331E-02
   7137.00  5.8200326E-02
   7138.00  5.8210395E-02
   7139.00  5.8072987E-02
   7140.00  5.7670732E-02
   7141.00  5.6924836E-02
   7142.00  5.5844740E-02
   7143.00  5.4547644E-02
   7144.00  5.3204729E-02
   7145.00  5.1967514E-02
   7146.00  5.0934048E-02
   7147.00  5.0154680E-02
   7148.00  4.9649470E-02
   7149.00  4.9421429E-02
   7150.00  4.9463619E-02
   7151.00  4.9762416E-02
   7152.00  5.0300079E-02
   7153.00  5.1057637E-02
   7154.00  5.2015267E-02
   7155.00  5.3148676E-02
   7156.00  5.4425008E-02
   7157.00  5.5802476E-02
   7158.00  5.7233153E-02
   7159.00  5.8665095E-02
   7160.00  6.0042840E-02
   7161.00  6.1309646E-02
   7162.00  6.2414294E-02
   7163.00  6.3320734E-02
   7164.00  6.4015589E-02
   7165.00  6.4509945E-02
   7166.00  6.4835602E-02
   7167.00  6.5038026E-02
   7168.00  6.5167736E-02
   7169.00  6.5271285E-02
   7170.00  6.5383619E-02
   7171.00  6.5524213E-02
   7172.00  6.5698050E-02
   7173.00  6.5900183E-02
   7174.00  6.6121139E-02
   7175.00  6.6350959E-02
   7176.00  6.6581244E-02
   7177.00  6.6805563E-02
   7178.00  6.7018684E-02
   7179.00  6.7214827E-02
   7180.00  6.7385411E-02
   7181.00  6.7517174E-02
   7182.00  6.7591598E-02
   7183.00  6.7586313E-02
   7184.00  6.7478655E-02
   7185.00  6.7250687E-02
   7186.00  6.6893983E-02
   7187.00  6.6412129E-02
   7188.00  6.5820013E-02
   7189.00  6.5140767E-02
   7190.00  6.4402256E-02
   7191.00  6.3634439E-02
   7192.00  6.2867642E-02
   7193.00  6.2131016E-02
   7194.00  6.1450690E-02
   7195.00  6.0847913E-02
   7196.00  6.0337814E-02
   7197.00  5.9929098E-02
   7198.00  5.9624389E-02
   7199.00  5.9420769E-02
   7200.00  5.9310333E-02
   7201.00  5.9280920E-02
   7202.00  5.9317254E-02
   7203.00  5.9402469E-02
   7204.00  5.9519775E-02
   7205.00  5.9653939E-02
   7206.00  5.9792342E-02
   7207.00  5.9925496E-02
   7208.00  6.0047067E-02
   7209.00  6.0153548E-02
   7210.00  6.0243759E-02
   7211.00  6.0318293E-02
   7212.00  6.0378921E-02
