    Energy    <xanes>    
   7072.00  2.5870272E-04
   7072.50  2.6191119E-04
   7073.00  2.6519380E-04
   7073.50  2.6855309E-04
   7074.00  2.7199176E-04
   7074.50  2.7551261E-04
   7075.00  2.7911856E-04
   7075.50  2.8281271E-04
   7076.00  2.8659826E-04
   7076.50  2.9047861E-04
   7077.00  2.9445730E-04
   7077.50  2.9853807E-04
   7078.00  3.0272484E-04
   7078.50  3.0702172E-04
   7079.00  3.1143306E-04
   7079.50  3.1596341E-04
   7080.00  3.2061758E-04
   7080.50  3.2540065E-04
   7081.00  3.3031796E-04
   7081.50  3.3537516E-04
   7082.00  3.4057821E-04
   7082.50  3.4593342E-04
   7083.00  3.5144745E-04
   7083.50  3.5712738E-04
   7084.00  3.6298069E-04
   7084.50  3.6901532E-04
   7085.00  3.7523970E-04
   7085.50  3.8166278E-04
   7086.00  3.8829408E-04
   7086.50  3.9514375E-04
   7087.00  4.0222259E-04
   7087.50  4.0954210E-04
   7088.00  4.1711461E-04
   7088.50  4.2495324E-04
   7089.00  4.3307206E-04
   7089.50  4.4148614E-04
   7090.00  4.5021163E-04
   7090.50  4.5926588E-04
   7091.00  4.6866754E-04
   7091.50  4.7843670E-04
   7092.00  4.8859499E-04
   7092.50  4.9916577E-04
   7093.00  5.1017431E-04
   7093.50  5.2164796E-04
   7094.00  5.3361636E-04
   7094.50  5.4611174E-04
   7095.00  5.5916914E-04
   7095.50  5.7282678E-04
   7096.00  5.8712638E-04
   7096.50  6.0211359E-04
   7097.00  6.1783849E-04
   7097.50  6.3435608E-04
   7098.00  6.5172694E-04
   7098.50  6.7001795E-04
   7099.00  6.8930312E-04
   7099.50  7.0966455E-04
   7100.00  7.3119361E-04
   7100.50  7.5399224E-04
   7101.00  7.7817454E-04
   7101.50  8.0386862E-04
   7102.00  8.3121887E-04
   7102.50  8.6038855E-04
   7103.00  8.9156307E-04
   7103.50  9.2495382E-04
   7104.00  9.6080292E-04
   7104.50  9.9938905E-04
   7105.00  1.0410346E-03
   7105.50  1.0861149E-03
   7106.00  1.1350692E-03
   7106.50  1.1884154E-03
   7107.00  1.2467692E-03
   7107.10  1.2591033E-03
   7107.20  1.2716732E-03
   7107.30  1.2844859E-03
   7107.40  1.2975484E-03
   7107.50  1.3108680E-03
   7107.60  1.3244526E-03
   7107.70  1.3383100E-03
   7107.80  1.3524487E-03
   7107.90  1.3668773E-03
   7108.00  1.3816049E-03
   7108.10  1.3966409E-03
   7108.20  1.4119952E-03
   7108.30  1.4276782E-03
   7108.40  1.4437006E-03
   7108.50  1.4600737E-03
   7108.60  1.4768093E-03
   7108.70  1.4939199E-03
   7108.80  1.5114185E-03
   7108.90  1.5293187E-03
   7109.00  1.5476349E-03
   7109.10  1.5663822E-03
   7109.20  1.5855765E-03
   7109.30  1.6052348E-03
   7109.40  1.6253747E-03
   7109.50  1.6460151E-03
   7109.60  1.6671761E-03
   7109.70  1.6888789E-03
   7109.80  1.7111463E-03
   7109.90  1.7340025E-03
   7110.00  1.7574735E-03
   7110.10  1.7815875E-03
   7110.20  1.8063750E-03
   7110.30  1.8318688E-03
   7110.40  1.8581053E-03
   7110.50  1.8851242E-03
   7110.60  1.9129697E-03
   7110.70  1.9416908E-03
   7110.80  1.9713431E-03
   7110.90  2.0019891E-03
   7111.00  2.0337003E-03
   7111.10  2.0665577E-03
   7111.20  2.1006532E-03
   7111.30  2.1360884E-03
   7111.40  2.1729706E-03
   7111.50  2.2114016E-03
   7111.60  2.2514561E-03
   7111.70  2.2931476E-03
   7111.80  2.3363906E-03
   7111.90  2.3809866E-03
   7112.00  2.4267333E-03
   7112.10  2.4736967E-03
   7112.20  2.5218494E-03
   7112.30  2.5713020E-03
   7112.40  2.6222860E-03
   7112.50  2.6750800E-03
   7112.60  2.7299610E-03
   7112.70  2.7871861E-03
   7112.80  2.8469936E-03
   7112.90  2.9096115E-03
   7113.00  2.9752672E-03
   7113.10  3.0441949E-03
   7113.20  3.1166417E-03
   7113.30  3.1928717E-03
   7113.40  3.2731697E-03
   7113.50  3.3578438E-03
   7113.60  3.4472286E-03
   7113.70  3.5416877E-03
   7113.80  3.6416167E-03
   7113.90  3.7474482E-03
   7114.00  3.8596561E-03
   7114.10  3.9787622E-03
   7114.20  4.1053427E-03
   7114.30  4.2400359E-03
   7114.40  4.3835521E-03
   7114.50  4.5366847E-03
   7114.60  4.7003232E-03
   7114.70  4.8754687E-03
   7114.80  5.0632506E-03
   7114.90  5.2649463E-03
   7115.00  5.4820053E-03
   7115.10  5.7160759E-03
   7115.20  5.9690381E-03
   7115.30  6.2430408E-03
   7115.40  6.5405433E-03
   7115.50  6.8643634E-03
   7115.60  7.2177296E-03
   7115.70  7.6043415E-03
   7115.80  8.0284399E-03
   7115.90  8.4948885E-03
   7116.00  9.0092672E-03
   7116.10  9.5779648E-03
   7116.20  1.0208255E-02
   7116.30  1.0908334E-02
   7116.40  1.1687279E-02
   7116.50  1.2554894E-02
   7116.60  1.3521339E-02
   7116.70  1.4596469E-02
   7116.80  1.5788738E-02
   7116.90  1.7103642E-02
   7117.00  1.8541735E-02
   7117.20  2.1753346E-02
   7117.40  2.5273016E-02
   7117.60  2.8866089E-02
   7117.80  3.2360197E-02
   7118.00  3.5787199E-02
   7118.20  3.9373126E-02
   7118.40  4.3370544E-02
   7118.60  4.7866371E-02
   7118.80  5.2672285E-02
   7119.00  5.7338677E-02
   7119.20  6.1308925E-02
   7119.40  6.4167785E-02
   7119.60  6.5831273E-02
   7119.80  6.6525091E-02
   7120.00  6.6583019E-02
   7120.20  6.6254979E-02
   7120.40  6.5655294E-02
   7120.60  6.4831937E-02
   7120.80  6.3859350E-02
   7121.00  6.2876816E-02
   7121.20  6.2064863E-02
   7121.40  6.1596264E-02
   7121.60  6.1592454E-02
   7121.80  6.2098477E-02
   7122.00  6.3080850E-02
   7122.20  6.4446406E-02
   7122.40  6.6071445E-02
   7122.60  6.7823335E-02
   7122.80  6.9562242E-02
   7123.00  7.1131608E-02
   7123.20  7.2362238E-02
   7123.40  7.3105249E-02
   7123.60  7.3280779E-02
   7123.80  7.2910717E-02
   7124.00  7.2113699E-02
   7124.20  7.1067566E-02
   7124.40  6.9961304E-02
   7124.60  6.8955962E-02
   7124.80  6.8163232E-02
   7125.00  6.7641352E-02
   7125.20  6.7403097E-02
   7125.40  6.7429258E-02
   7125.60  6.7682207E-02
   7125.80  6.8116508E-02
   7126.00  6.8685817E-02
   7126.20  6.9346594E-02
   7126.40  7.0059553E-02
   7126.60  7.0789702E-02
   7126.80  7.1505648E-02
   7127.00  7.2178868E-02
   7127.20  7.2783618E-02
   7127.40  7.3297813E-02
   7127.60  7.3704716E-02
   7127.80  7.3994646E-02
   7128.00  7.4165828E-02
   7128.20  7.4223857E-02
   7128.40  7.4179913E-02
   7128.60  7.4048371E-02
   7128.80  7.3844563E-02
   7129.00  7.3583188E-02
   7129.20  7.3277508E-02
   7129.40  7.2939160E-02
   7129.60  7.2578281E-02
   7129.80  7.2203689E-02
   7130.00  7.1822949E-02
   7130.20  7.1442320E-02
   7130.40  7.1066642E-02
   7130.60  7.0699280E-02
   7130.80  7.0342187E-02
   7131.00  6.9996117E-02
   7131.20  6.9660949E-02
   7131.40  6.9336057E-02
   7131.60  6.9020655E-02
   7131.80  6.8714066E-02
   7132.00  6.8415888E-02
   7133.00  6.7055882E-02
   7134.00  6.5922604E-02
   7135.00  6.4889747E-02
   7136.00  6.3753033E-02
   7137.00  6.2475445E-02
   7138.00  6.1201543E-02
   7139.00  6.0097023E-02
   7140.00  5.9245827E-02
   7141.00  5.8652491E-02
   7142.00  5.8267457E-02
   7143.00  5.7987801E-02
   7144.00  5.7663779E-02
   7145.00  5.7146890E-02
   7146.00  5.6364309E-02
   7147.00  5.5356302E-02
   7148.00  5.4240188E-02
   7149.00  5.3141686E-02
   7150.00  5.2154660E-02
   7151.00  5.1342635E-02
   7152.00  5.0756246E-02
   7153.00  5.0441775E-02
   7154.00  5.0434392E-02
   7155.00  5.0744145E-02
   7156.00  5.1347105E-02
   7157.00  5.2188705E-02
   7158.00  5.3197775E-02
   7159.00  5.4304735E-02
   7160.00  5.5456865E-02
   7161.00  5.6625420E-02
   7162.00  5.7802785E-02
   7163.00  5.8992335E-02
   7164.00  6.0196487E-02
   7165.00  6.1407870E-02
   7166.00  6.2605725E-02
   7167.00  6.3757153E-02
   7168.00  6.4821859E-02
   7169.00  6.5758683E-02
   7170.00  6.6532154E-02
   7171.00  6.7117479E-02
   7172.00  6.7503419E-02
   7173.00  6.7693486E-02
   7174.00  6.7705718E-02
   7175.00  6.7570631E-02
   7176.00  6.7326996E-02
   7177.00  6.7016138E-02
   7178.00  6.6676342E-02
   7179.00  6.6338856E-02
   7180.00  6.6026089E-02
   7181.00  6.5751698E-02
   7182.00  6.5521850E-02
   7183.00  6.5337091E-02
   7184.00  6.5194308E-02
   7185.00  6.5088287E-02
   7186.00  6.5012553E-02
   7187.00  6.4959631E-02
   7188.00  6.4921128E-02
   7189.00  6.4887787E-02
   7190.00  6.4849350E-02
   7191.00  6.4794097E-02
   7192.00  6.4708348E-02
   7193.00  6.4576709E-02
   7194.00  6.4383869E-02
   7195.00  6.4118066E-02
   7196.00  6.3775232E-02
   7197.00  6.3361922E-02
   7198.00  6.2895459E-02
   7199.00  6.2400873E-02
   7200.00  6.1905621E-02
   7201.00  6.1433805E-02
   7202.00  6.1001479E-02
   7203.00  6.0614127E-02
   7204.00  6.0266732E-02
   7205.00  5.9946286E-02
   7206.00  5.9636082E-02
   7207.00  5.9320668E-02
   7208.00  5.8990119E-02
   7209.00  5.8642402E-02
   7210.00  5.8283198E-02
   7211.00  5.7923452E-02
   7212.00  5.7575732E-02
