    Energy    <xanes>    
   7072.00  1.2701812E-04
   7072.50  1.2850793E-04
   7073.00  1.3003031E-04
   7073.50  1.3158630E-04
   7074.00  1.3317703E-04
   7074.50  1.3480365E-04
   7075.00  1.3646738E-04
   7075.50  1.3816947E-04
   7076.00  1.3991126E-04
   7076.50  1.4169412E-04
   7077.00  1.4351952E-04
   7077.50  1.4538896E-04
   7078.00  1.4730404E-04
   7078.50  1.4926644E-04
   7079.00  1.5127789E-04
   7079.50  1.5334025E-04
   7080.00  1.5545543E-04
   7080.50  1.5762547E-04
   7081.00  1.5985251E-04
   7081.50  1.6213879E-04
   7082.00  1.6448668E-04
   7082.50  1.6689866E-04
   7083.00  1.6937738E-04
   7083.50  1.7192560E-04
   7084.00  1.7454625E-04
   7084.50  1.7724244E-04
   7085.00  1.8001743E-04
   7085.50  1.8287470E-04
   7086.00  1.8581792E-04
   7086.50  1.8885100E-04
   7087.00  1.9197806E-04
   7087.50  1.9520350E-04
   7088.00  1.9853201E-04
   7088.50  2.0196855E-04
   7089.00  2.0551843E-04
   7089.50  2.0918732E-04
   7090.00  2.1298126E-04
   7090.50  2.1690672E-04
   7091.00  2.2097062E-04
   7091.50  2.2518038E-04
   7092.00  2.2954398E-04
   7092.50  2.3406999E-04
   7093.00  2.3876764E-04
   7093.50  2.4364688E-04
   7094.00  2.4871848E-04
   7094.50  2.5399407E-04
   7095.00  2.5948629E-04
   7095.50  2.6520886E-04
   7096.00  2.7117671E-04
   7096.50  2.7740615E-04
   7097.00  2.8391503E-04
   7097.50  2.9072293E-04
   7098.00  2.9785140E-04
   7098.50  3.0532420E-04
   7099.00  3.1316769E-04
   7099.50  3.2141114E-04
   7100.00  3.3008724E-04
   7100.50  3.3923265E-04
   7101.00  3.4888870E-04
   7101.50  3.5910224E-04
   7102.00  3.6992676E-04
   7102.50  3.8142370E-04
   7103.00  3.9366431E-04
   7103.50  4.0673198E-04
   7104.00  4.2072536E-04
   7104.50  4.3576275E-04
   7105.00  4.5198809E-04
   7105.50  4.6957966E-04
   7106.00  4.8876296E-04
   7106.50  5.0983030E-04
   7107.00  5.3317183E-04
   7107.10  5.3815705E-04
   7107.20  5.4325931E-04
   7107.30  5.4848422E-04
   7107.40  5.5383787E-04
   7107.50  5.5932680E-04
   7107.60  5.6495813E-04
   7107.70  5.7073955E-04
   7107.80  5.7667945E-04
   7107.90  5.8278695E-04
   7108.00  5.8907202E-04
   7108.10  5.9554560E-04
   7108.20  6.0221965E-04
   7108.30  6.0910736E-04
   7108.40  6.1622327E-04
   7108.50  6.2358349E-04
   7108.60  6.3120585E-04
   7108.70  6.3911023E-04
   7108.80  6.4731879E-04
   7108.90  6.5585637E-04
   7109.00  6.6475085E-04
   7109.10  6.7403370E-04
   7109.20  6.8374050E-04
   7109.30  6.9391166E-04
   7109.40  7.0459328E-04
   7109.50  7.1583813E-04
   7109.60  7.2770689E-04
   7109.70  7.4026965E-04
   7109.80  7.5360773E-04
   7109.90  7.6781598E-04
   7110.00  7.8300554E-04
   7110.10  7.9930736E-04
   7110.20  8.1687655E-04
   7110.30  8.3589790E-04
   7110.40  8.5659283E-04
   7110.50  8.7922822E-04
   7110.60  9.0412765E-04
   7110.70  9.3168576E-04
   7110.80  9.6238652E-04
   7110.90  9.9682646E-04
   7111.00  1.0357437E-03
   7111.10  1.0800535E-03
   7111.20  1.1308900E-03
   7111.30  1.1896502E-03
   7111.40  1.2580314E-03
   7111.50  1.3380397E-03
   7111.60  1.4319251E-03
   7111.70  1.5419675E-03
   7111.80  1.6700085E-03
   7111.90  1.8166417E-03
   7112.00  1.9801375E-03
   7112.10  2.1556135E-03
   7112.20  2.3351517E-03
   7112.30  2.5098643E-03
   7112.40  2.6723278E-03
   7112.50  2.8160366E-03
   7112.60  2.9312659E-03
   7112.70  3.0023797E-03
   7112.80  3.0123949E-03
   7112.90  2.9533790E-03
   7113.00  2.8335967E-03
   7113.10  2.6745483E-03
   7113.20  2.5011709E-03
   7113.30  2.3334037E-03
   7113.40  2.1831637E-03
   7113.50  2.0554414E-03
   7113.60  1.9507796E-03
   7113.70  1.8674609E-03
   7113.80  1.8029327E-03
   7113.90  1.7545778E-03
   7114.00  1.7200627E-03
   7114.10  1.6974548E-03
   7114.20  1.6852232E-03
   7114.30  1.6821950E-03
   7114.40  1.6875013E-03
   7114.50  1.7005318E-03
   7114.60  1.7208964E-03
   7114.70  1.7483923E-03
   7114.80  1.7829676E-03
   7114.90  1.8246742E-03
   7115.00  1.8736000E-03
   7115.10  1.9297702E-03
   7115.20  1.9930195E-03
   7115.30  2.0628664E-03
   7115.40  2.1384726E-03
   7115.50  2.2188112E-03
   7115.60  2.3031027E-03
   7115.70  2.3913746E-03
   7115.80  2.4847922E-03
   7115.90  2.5854863E-03
   7116.00  2.6959508E-03
   7116.10  2.8183375E-03
   7116.20  2.9538945E-03
   7116.30  3.1025662E-03
   7116.40  3.2626641E-03
   7116.50  3.4305758E-03
   7116.60  3.6006273E-03
   7116.70  3.7653347E-03
   7116.80  3.9162847E-03
   7116.90  4.0456661E-03
   7117.00  4.1480660E-03
   7117.20  4.2692493E-03
   7117.40  4.3086693E-03
   7117.60  4.3212741E-03
   7117.80  4.3529622E-03
   7118.00  4.4296000E-03
   7118.20  4.5607424E-03
   7118.40  4.7472913E-03
   7118.60  4.9891316E-03
   7118.80  5.2894954E-03
   7119.00  5.6548870E-03
   7119.20  6.0928187E-03
   7119.40  6.6099379E-03
   7119.60  7.2111526E-03
   7119.80  7.8990118E-03
   7120.00  8.6724923E-03
   7120.20  9.5250029E-03
   7120.40  1.0442618E-02
   7120.60  1.1404649E-02
   7120.80  1.2387749E-02
   7121.00  1.3370918E-02
   7121.20  1.4336104E-02
   7121.40  1.5264507E-02
   7121.60  1.6137194E-02
   7121.80  1.6945195E-02
   7122.00  1.7700743E-02
   7122.20  1.8437568E-02
   7122.40  1.9199804E-02
   7122.60  2.0029314E-02
   7122.80  2.0959018E-02
   7123.00  2.2012248E-02
   7123.20  2.3204250E-02
   7123.40  2.4543074E-02
   7123.60  2.6029778E-02
   7123.80  2.7659039E-02
   7124.00  2.9420128E-02
   7124.20  3.1296669E-02
   7124.40  3.3263714E-02
   7124.60  3.5282597E-02
   7124.80  3.7296430E-02
   7125.00  3.9229905E-02
   7125.20  4.0995717E-02
   7125.40  4.2507047E-02
   7125.60  4.3692804E-02
   7125.80  4.4511005E-02
   7126.00  4.4956171E-02
   7126.20  4.5058494E-02
   7126.40  4.4875289E-02
   7126.60  4.4477848E-02
   7126.80  4.3938194E-02
   7127.00  4.3319443E-02
   7127.20  4.2671237E-02
   7127.40  4.2029524E-02
   7127.60  4.1418842E-02
   7127.80  4.0855373E-02
   7128.00  4.0349634E-02
   7128.20  3.9908379E-02
   7128.40  3.9535722E-02
   7128.60  3.9233661E-02
   7128.80  3.9002288E-02
   7129.00  3.8839861E-02
   7129.20  3.8742898E-02
   7129.40  3.8706354E-02
   7129.60  3.8723890E-02
   7129.80  3.8788212E-02
   7130.00  3.8891439E-02
   7130.20  3.9025479E-02
   7130.40  3.9182355E-02
   7130.60  3.9354482E-02
   7130.80  3.9534862E-02
   7131.00  3.9717198E-02
   7131.20  3.9895936E-02
   7131.40  4.0066245E-02
   7131.60  4.0223972E-02
   7131.80  4.0365576E-02
   7132.00  4.0488087E-02
   7133.00  4.0745930E-02
   7134.00  4.0351576E-02
   7135.00  3.9355149E-02
   7136.00  3.7895732E-02
   7137.00  3.6196162E-02
   7138.00  3.4510587E-02
   7139.00  3.3022645E-02
   7140.00  3.1807767E-02
   7141.00  3.0859124E-02
   7142.00  3.0123656E-02
   7143.00  2.9528062E-02
   7144.00  2.8997063E-02
   7145.00  2.8468768E-02
   7146.00  2.7909685E-02
   7147.00  2.7324624E-02
   7148.00  2.6752121E-02
   7149.00  2.6244326E-02
   7150.00  2.5843377E-02
   7151.00  2.5568712E-02
   7152.00  2.5419765E-02
   7153.00  2.5387019E-02
   7154.00  2.5461409E-02
   7155.00  2.5637470E-02
   7156.00  2.5911448E-02
   7157.00  2.6277036E-02
   7158.00  2.6721001E-02
   7159.00  2.7221247E-02
   7160.00  2.7749375E-02
   7161.00  2.8276925E-02
   7162.00  2.8781740E-02
   7163.00  2.9251157E-02
   7164.00  2.9681489E-02
   7165.00  3.0075238E-02
   7166.00  3.0437487E-02
   7167.00  3.0772314E-02
   7168.00  3.1080117E-02
   7169.00  3.1356833E-02
   7170.00  3.1595497E-02
   7171.00  3.1789382E-02
   7172.00  3.1934960E-02
   7173.00  3.2033250E-02
   7174.00  3.2089434E-02
   7175.00  3.2111649E-02
   7176.00  3.2109744E-02
   7177.00  3.2094240E-02
   7178.00  3.2075400E-02
   7179.00  3.2062434E-02
   7180.00  3.2062930E-02
   7181.00  3.2082554E-02
   7182.00  3.2125073E-02
   7183.00  3.2192767E-02
   7184.00  3.2287100E-02
   7185.00  3.2409299E-02
   7186.00  3.2560425E-02
   7187.00  3.2740822E-02
   7188.00  3.2949228E-02
   7189.00  3.3182076E-02
   7190.00  3.3433386E-02
   7191.00  3.3695190E-02
   7192.00  3.3958076E-02
   7193.00  3.4211434E-02
   7194.00  3.4443427E-02
   7195.00  3.4640974E-02
   7196.00  3.4790182E-02
   7197.00  3.4877473E-02
   7198.00  3.4891401E-02
   7199.00  3.4824806E-02
   7200.00  3.4676588E-02
   7201.00  3.4452361E-02
   7202.00  3.4163672E-02
   7203.00  3.3826076E-02
   7204.00  3.3456783E-02
   7205.00  3.3072606E-02
   7206.00  3.2688576E-02
   7207.00  3.2317191E-02
   7208.00  3.1968060E-02
   7209.00  3.1647784E-02
   7210.00  3.1360027E-02
   7211.00  3.1105838E-02
   7212.00  3.0884202E-02
