    Energy    <xanes>    
   7072.00  5.2475233E-04
   7072.50  5.3102438E-04
   7073.00  5.3743772E-04
   7073.50  5.4399711E-04
   7074.00  5.5070756E-04
   7074.50  5.5757426E-04
   7075.00  5.6460268E-04
   7075.50  5.7179853E-04
   7076.00  5.7916778E-04
   7076.50  5.8671672E-04
   7077.00  5.9445189E-04
   7077.50  6.0238021E-04
   7078.00  6.1050889E-04
   7078.50  6.1884554E-04
   7079.00  6.2739813E-04
   7079.50  6.3617507E-04
   7080.00  6.4518517E-04
   7080.50  6.5443773E-04
   7081.00  6.6394255E-04
   7081.50  6.7370993E-04
   7082.00  6.8375077E-04
   7082.50  6.9407656E-04
   7083.00  7.0469942E-04
   7083.50  7.1563220E-04
   7084.00  7.2688846E-04
   7084.50  7.3848256E-04
   7085.00  7.5042975E-04
   7085.50  7.6274615E-04
   7086.00  7.7544890E-04
   7086.50  7.8855620E-04
   7087.00  8.0208741E-04
   7087.50  8.1606311E-04
   7088.00  8.3050523E-04
   7088.50  8.4543717E-04
   7089.00  8.6088389E-04
   7089.50  8.7687204E-04
   7090.00  8.9343017E-04
   7090.50  9.1058881E-04
   7091.00  9.2838070E-04
   7091.50  9.4684099E-04
   7092.00  9.6600745E-04
   7092.50  9.8592072E-04
   7093.00  1.0066246E-03
   7093.50  1.0281663E-03
   7094.00  1.0505968E-03
   7094.50  1.0739715E-03
   7095.00  1.0983501E-03
   7095.50  1.1237978E-03
   7096.00  1.1503850E-03
   7096.50  1.1781889E-03
   7097.00  1.2072934E-03
   7097.50  1.2377904E-03
   7098.00  1.2697805E-03
   7098.50  1.3033743E-03
   7099.00  1.3386933E-03
   7099.50  1.3758718E-03
   7100.00  1.4150581E-03
   7100.50  1.4564167E-03
   7101.00  1.5001303E-03
   7101.50  1.5464031E-03
   7102.00  1.5954631E-03
   7102.50  1.6475663E-03
   7103.00  1.7030013E-03
   7103.50  1.7620942E-03
   7104.00  1.8252156E-03
   7104.50  1.8927882E-03
   7105.00  1.9652968E-03
   7105.50  2.0433004E-03
   7106.00  2.1274478E-03
   7106.50  2.2184974E-03
   7107.00  2.3173429E-03
   7107.10  2.3382380E-03
   7107.20  2.3592549E-03
   7107.30  2.3804066E-03
   7107.40  2.4025114E-03
   7107.50  2.4250478E-03
   7107.60  2.4478741E-03
   7107.70  2.4708423E-03
   7107.80  2.4937029E-03
   7107.90  2.5175159E-03
   7107.93  2.5259479E-03
   7108.03  2.5505356E-03
   7108.13  2.5755943E-03
   7108.23  2.6011383E-03
   7108.33  2.6271828E-03
   7108.43  2.6537434E-03
   7108.53  2.6808365E-03
   7108.63  2.7084795E-03
   7108.73  2.7366905E-03
   7108.83  2.7654887E-03
   7108.93  2.7948942E-03
   7109.03  2.8249285E-03
   7109.13  2.8556140E-03
   7109.23  2.8869747E-03
   7109.33  2.9190360E-03
   7109.43  2.9518251E-03
   7109.53  2.9853710E-03
   7109.63  3.0197048E-03
   7109.73  3.0548600E-03
   7109.83  3.0908727E-03
   7109.93  3.1277823E-03
   7110.03  3.1656316E-03
   7110.13  3.2044676E-03
   7110.23  3.2443422E-03
   7110.33  3.2853129E-03
   7110.43  3.3274443E-03
   7110.53  3.3708091E-03
   7110.63  3.4154899E-03
   7110.73  3.4615814E-03
   7110.83  3.5091932E-03
   7110.93  3.5584529E-03
   7111.03  3.6095095E-03
   7111.13  3.6625380E-03
   7111.23  3.7177423E-03
   7111.33  3.7753564E-03
   7111.43  3.8356400E-03
   7111.53  3.8988634E-03
   7111.63  3.9652766E-03
   7111.73  4.0350616E-03
   7111.83  4.1082798E-03
   7111.93  4.1848708E-03
   7112.03  4.2646680E-03
   7112.13  4.3473016E-03
   7112.23  4.4322225E-03
   7112.33  4.5188265E-03
   7112.43  4.6066087E-03
   7112.53  4.6953509E-03
   7112.63  4.7851939E-03
   7112.73  4.8765385E-03
   7112.83  4.9699000E-03
   7112.93  5.0657941E-03
   7113.03  5.1645083E-03
   7113.13  5.2661847E-03
   7113.23  5.3708481E-03
   7113.33  5.4783674E-03
   7113.43  5.5885542E-03
   7113.53  5.7013539E-03
   7113.63  5.8169714E-03
   7113.73  5.9358925E-03
   7113.83  6.0589198E-03
   7113.93  6.1872269E-03
   7114.03  6.3222765E-03
   7114.13  6.4655855E-03
   7114.23  6.6185040E-03
   7114.33  6.7821410E-03
   7114.43  6.9574205E-03
   7114.53  7.1451854E-03
   7114.63  7.3462922E-03
   7114.73  7.5616792E-03
   7114.83  7.7924125E-03
   7114.93  8.0397177E-03
   7115.03  8.3050067E-03
   7115.13  8.5899016E-03
   7115.23  8.8962611E-03
   7115.33  9.2262079E-03
   7115.43  9.5821597E-03
   7115.53  9.9668609E-03
   7115.63  1.0383415E-02
   7115.73  1.0835314E-02
   7115.83  1.1326456E-02
   7115.93  1.1861151E-02
   7116.03  1.2444092E-02
   7116.13  1.3080287E-02
   7116.23  1.3774926E-02
   7116.33  1.4533164E-02
   7116.43  1.5359810E-02
   7116.53  1.6258922E-02
   7116.63  1.7233353E-02
   7116.73  1.8284323E-02
   7116.83  1.9411163E-02
   7116.93  2.0611381E-02
   7117.03  2.1882482E-02
   7117.13  2.3218765E-02
   7117.23  2.4610807E-02
   7117.33  2.6064039E-02
   7117.43  2.7574140E-02
   7117.53  2.9136144E-02
   7117.63  3.0757346E-02
   7117.73  3.2421148E-02
   7117.83  3.4160981E-02
   7117.93  3.5935220E-02
   7118.13  3.9653470E-02
   7118.33  4.3641408E-02
   7118.53  4.7933790E-02
   7118.73  5.2512349E-02
   7118.93  5.7284543E-02
   7119.13  6.2091403E-02
   7119.33  6.6759415E-02
   7119.53  7.1188446E-02
   7119.73  7.5399982E-02
   7119.93  7.9494214E-02
   7120.13  8.3564568E-02
   7120.33  8.7631330E-02
   7120.53  9.1627996E-02
   7120.73  9.5451884E-02
   7120.93  9.9046519E-02
   7121.13  1.0245413E-01
   7121.33  1.0580970E-01
   7121.53  1.0929907E-01
   7121.73  1.1311122E-01
   7121.93  1.1739796E-01
   7122.13  1.2224636E-01
   7122.33  1.2766568E-01
   7122.53  1.3358492E-01
   7122.73  1.3985725E-01
   7122.93  1.4627377E-01
   7123.13  1.5259017E-01
   7123.33  1.5856149E-01
   7123.53  1.6397236E-01
   7123.73  1.6865593E-01
   7123.93  1.7250681E-01
   7124.13  1.7549346E-01
   7124.33  1.7766436E-01
   7124.53  1.7913756E-01
   7124.73  1.8007265E-01
   7124.93  1.8063646E-01
   7125.13  1.8097692E-01
   7125.33  1.8121186E-01
   7125.53  1.8142861E-01
   7125.73  1.8168575E-01
   7125.93  1.8201221E-01
   7126.13  1.8240515E-01
   7126.33  1.8283130E-01
   7126.53  1.8323409E-01
   7126.73  1.8354522E-01
   7126.93  1.8369669E-01
   7127.13  1.8362951E-01
   7127.33  1.8329750E-01
   7127.53  1.8266728E-01
   7127.73  1.8171664E-01
   7127.93  1.8043376E-01
   7128.13  1.7881776E-01
   7128.33  1.7688033E-01
   7128.53  1.7464693E-01
   7128.73  1.7215630E-01
   7128.93  1.6945782E-01
   7129.13  1.6660713E-01
   7129.33  1.6366100E-01
   7129.53  1.6067262E-01
   7129.73  1.5768812E-01
   7129.93  1.5474474E-01
   7130.13  1.5187055E-01
   7130.33  1.4908533E-01
   7130.53  1.4640211E-01
   7130.73  1.4382900E-01
   7130.93  1.4137079E-01
   7131.13  1.3903041E-01
   7131.33  1.3680982E-01
   7131.53  1.3471062E-01
   7131.73  1.3273421E-01
   7131.93  1.3088182E-01
   7132.13  1.2919004E-01
   7132.33  1.2762110E-01
   7132.53  1.2614874E-01
   7132.73  1.2477411E-01
   7132.93  1.2357370E-01
   7133.93  1.1900510E-01
   7134.93  1.1661539E-01
   7135.93  1.1564562E-01
   7136.93  1.1547792E-01
   7137.93  1.1563635E-01
   7138.93  1.1573919E-01
   7139.93  1.1548140E-01
   7140.93  1.1463448E-01
   7141.93  1.1307916E-01
   7142.93  1.1084882E-01
   7143.93  1.0812747E-01
   7144.93  1.0519050E-01
   7145.93  1.0233121E-01
   7146.93  9.9811853E-02
   7147.93  9.7840622E-02
   7148.93  9.6558740E-02
   7149.93  9.6034999E-02
   7150.93  9.6274212E-02
   7151.93  9.7235643E-02
   7152.93  9.8849521E-02
   7153.93  1.0102574E-01
   7154.93  1.0365742E-01
   7155.93  1.0662429E-01
   7156.93  1.0979851E-01
   7157.93  1.1305258E-01
   7158.93  1.1626658E-01
   7159.93  1.1933390E-01
   7160.93  1.2216766E-01
   7161.93  1.2470932E-01
   7162.93  1.2693566E-01
   7163.93  1.2885772E-01
   7164.93  1.3051016E-01
   7165.93  1.3193572E-01
   7166.93  1.3317220E-01
   7167.93  1.3424565E-01
   7168.93  1.3516934E-01
   7169.93  1.3594600E-01
   7170.93  1.3657182E-01
   7171.93  1.3704142E-01
   7172.93  1.3735319E-01
   7173.93  1.3751296E-01
   7174.93  1.3753450E-01
   7175.93  1.3743601E-01
   7176.93  1.3723417E-01
   7177.93  1.3693831E-01
   7178.93  1.3654733E-01
   7179.93  1.3605083E-01
   7180.93  1.3543414E-01
   7181.93  1.3468525E-01
   7182.93  1.3380075E-01
   7183.93  1.3278860E-01
   7184.93  1.3166728E-01
   7185.93  1.3046270E-01
   7186.93  1.2920462E-01
   7187.93  1.2792362E-01
   7188.93  1.2664867E-01
   7189.93  1.2540547E-01
   7190.93  1.2421571E-01
   7191.93  1.2309735E-01
   7192.93  1.2206552E-01
   7193.93  1.2113348E-01
   7194.93  1.2031297E-01
   7195.93  1.1961399E-01
   7196.93  1.1904381E-01
   7197.93  1.1860560E-01
   7198.93  1.1829725E-01
   7199.93  1.1811121E-01
   7200.93  1.1803565E-01
   7201.93  1.1805673E-01
   7202.93  1.1816093E-01
   7203.93  1.1833662E-01
   7204.93  1.1857446E-01
   7205.93  1.1886668E-01
   7206.93  1.1920586E-01
   7207.93  1.1958361E-01
   7208.93  1.1998962E-01
   7209.93  1.2041139E-01
   7210.93  1.2083485E-01
   7211.93  1.2124582E-01
