    Energy    <xanes>    
   7072.00  2.5207289E-04
   7072.50  2.5507733E-04
   7073.00  2.5814840E-04
   7073.50  2.6128831E-04
   7074.00  2.6449936E-04
   7074.50  2.6778395E-04
   7075.00  2.7114459E-04
   7075.50  2.7458392E-04
   7076.00  2.7810469E-04
   7076.50  2.8170977E-04
   7077.00  2.8540217E-04
   7077.50  2.8918506E-04
   7078.00  2.9306175E-04
   7078.50  2.9703570E-04
   7079.00  3.0111058E-04
   7079.50  3.0529019E-04
   7080.00  3.0957858E-04
   7080.50  3.1397996E-04
   7081.00  3.1849879E-04
   7081.50  3.2313975E-04
   7082.00  3.2790778E-04
   7082.50  3.3280807E-04
   7083.00  3.3784613E-04
   7083.50  3.4302774E-04
   7084.00  3.4835902E-04
   7084.50  3.5384643E-04
   7085.00  3.5949684E-04
   7085.50  3.6531748E-04
   7086.00  3.7131603E-04
   7086.50  3.7750064E-04
   7087.00  3.8387996E-04
   7087.50  3.9046318E-04
   7088.00  3.9726006E-04
   7088.50  4.0428101E-04
   7089.00  4.1153710E-04
   7089.50  4.1904015E-04
   7090.00  4.2680280E-04
   7090.50  4.3483851E-04
   7091.00  4.4316174E-04
   7091.50  4.5178795E-04
   7092.00  4.6073371E-04
   7092.50  4.7001686E-04
   7093.00  4.7965656E-04
   7093.50  4.8967344E-04
   7094.00  5.0008976E-04
   7094.50  5.1092956E-04
   7095.00  5.2221885E-04
   7095.50  5.3398583E-04
   7096.00  5.4626107E-04
   7096.50  5.5907787E-04
   7097.00  5.7247248E-04
   7097.50  5.8648449E-04
   7098.00  6.0115722E-04
   7098.50  6.1653820E-04
   7099.00  6.3267968E-04
   7099.50  6.4963926E-04
   7100.00  6.6748066E-04
   7100.50  6.8627452E-04
   7101.00  7.0609950E-04
   7101.50  7.2704346E-04
   7102.00  7.4920497E-04
   7102.50  7.7269516E-04
   7103.00  7.9763995E-04
   7103.50  8.2418291E-04
   7104.00  8.5248888E-04
   7104.50  8.8274873E-04
   7105.00  9.1518563E-04
   7105.50  9.5006373E-04
   7106.00  9.8770036E-04
   7106.50  1.0284839E-03
   7107.00  1.0729015E-03
   7107.10  1.0822732E-03
   7107.20  1.0918208E-03
   7107.30  1.1015504E-03
   7107.40  1.1114686E-03
   7107.50  1.1215827E-03
   7107.60  1.1319001E-03
   7107.70  1.1424291E-03
   7107.80  1.1531783E-03
   7107.90  1.1641571E-03
   7108.00  1.1753757E-03
   7108.10  1.1868451E-03
   7108.20  1.1985770E-03
   7108.30  1.2105846E-03
   7108.40  1.2228819E-03
   7108.50  1.2354845E-03
   7108.60  1.2484094E-03
   7108.70  1.2616753E-03
   7108.80  1.2753033E-03
   7108.90  1.2893163E-03
   7109.00  1.3037404E-03
   7109.10  1.3186047E-03
   7109.20  1.3339418E-03
   7109.30  1.3497889E-03
   7109.40  1.3661882E-03
   7109.50  1.3831882E-03
   7109.60  1.4008444E-03
   7109.70  1.4192212E-03
   7109.80  1.4383936E-03
   7109.90  1.4584492E-03
   7110.00  1.4794914E-03
   7110.10  1.5016427E-03
   7110.20  1.5250494E-03
   7110.30  1.5498871E-03
   7110.40  1.5763683E-03
   7110.50  1.6047515E-03
   7110.60  1.6353536E-03
   7110.70  1.6685652E-03
   7110.80  1.7048702E-03
   7110.90  1.7448707E-03
   7111.00  1.7893172E-03
   7111.10  1.8391437E-03
   7111.20  1.8955047E-03
   7111.30  1.9598044E-03
   7111.40  2.0336960E-03
   7111.50  2.1190061E-03
   7111.60  2.2175017E-03
   7111.70  2.3303674E-03
   7111.80  2.4572391E-03
   7111.90  2.5947293E-03
   7112.00  2.7347509E-03
   7112.10  2.8637167E-03
   7112.20  2.9640677E-03
   7112.30  3.0201924E-03
   7112.40  3.0260328E-03
   7112.50  2.9885371E-03
   7112.60  2.9236589E-03
   7112.70  2.8486283E-03
   7112.80  2.7764276E-03
   7112.90  2.7144312E-03
   7113.00  2.6656027E-03
   7113.10  2.6302589E-03
   7113.20  2.6074431E-03
   7113.30  2.5957507E-03
   7113.40  2.5937482E-03
   7113.50  2.6001549E-03
   7113.60  2.6139005E-03
   7113.70  2.6341267E-03
   7113.80  2.6601638E-03
   7113.90  2.6915021E-03
   7114.00  2.7277619E-03
   7114.10  2.7686704E-03
   7114.20  2.8140426E-03
   7114.30  2.8637678E-03
   7114.40  2.9177994E-03
   7114.50  2.9761477E-03
   7114.60  3.0388755E-03
   7114.70  3.1060942E-03
   7114.80  3.1779621E-03
   7114.90  3.2546828E-03
   7115.00  3.3365039E-03
   7115.10  3.4237152E-03
   7115.20  3.5166459E-03
   7115.30  3.6156617E-03
   7115.40  3.7211629E-03
   7115.50  3.8335858E-03
   7115.60  3.9534104E-03
   7115.70  4.0811756E-03
   7115.80  4.2174966E-03
   7115.90  4.3630805E-03
   7116.00  4.5187366E-03
   7116.10  4.6853831E-03
   7116.20  4.8640527E-03
   7116.30  5.0558997E-03
   7116.40  5.2622076E-03
   7116.50  5.4843997E-03
   7116.60  5.7240491E-03
   7116.70  5.9828889E-03
   7116.80  6.2628203E-03
   7116.90  6.5659180E-03
   7117.00  6.8944325E-03
   7117.20  7.6375647E-03
   7117.40  8.5132136E-03
   7117.60  9.5422655E-03
   7117.80  1.0739422E-02
   7118.00  1.2106577E-02
   7118.20  1.3633982E-02
   7118.40  1.5307152E-02
   7118.60  1.7104518E-02
   7118.80  1.8989242E-02
   7119.00  2.0910780E-02
   7119.20  2.2817101E-02
   7119.40  2.4672257E-02
   7119.60  2.6464181E-02
   7119.80  2.8190561E-02
   7120.00  2.9839597E-02
   7120.20  3.1389792E-02
   7120.40  3.2825447E-02
   7120.60  3.4151052E-02
   7120.80  3.5395144E-02
   7121.00  3.6601513E-02
   7121.20  3.7817110E-02
   7121.40  3.9087295E-02
   7121.60  4.0453184E-02
   7121.80  4.1943822E-02
   7122.00  4.3572712E-02
   7122.20  4.5349831E-02
   7122.40  4.7299925E-02
   7122.60  4.9467804E-02
   7122.80  5.1904902E-02
   7123.00  5.4646428E-02
   7123.20  5.7689326E-02
   7123.40  6.0977349E-02
   7123.60  6.4399121E-02
   7123.80  6.7803549E-02
   7124.00  7.1030021E-02
   7124.20  7.3942620E-02
   7124.40  7.6454814E-02
   7124.60  7.8536252E-02
   7124.80  8.0203419E-02
   7125.00  8.1503627E-02
   7125.20  8.2501207E-02
   7125.40  8.3268146E-02
   7125.60  8.3876419E-02
   7125.80  8.4389909E-02
   7126.00  8.4857106E-02
   7126.20  8.5307487E-02
   7126.40  8.5753098E-02
   7126.60  8.6194272E-02
   7126.80  8.6626642E-02
   7127.00  8.7046680E-02
   7127.20  8.7454156E-02
   7127.40  8.7851531E-02
   7127.60  8.8241265E-02
   7127.80  8.8622459E-02
   7128.00  8.8988017E-02
   7128.20  8.9323175E-02
   7128.40  8.9605702E-02
   7128.60  8.9807780E-02
   7128.80  8.9899182E-02
   7129.00  8.9851154E-02
   7129.20  8.9640227E-02
   7129.40  8.9251212E-02
   7129.60  8.8678861E-02
   7129.80  8.7928033E-02
   7130.00  8.7012555E-02
   7130.20  8.5953211E-02
   7130.40  8.4775347E-02
   7130.60  8.3506519E-02
   7130.80  8.2174459E-02
   7131.00  8.0805518E-02
   7131.20  7.9423616E-02
   7131.40  7.8049657E-02
   7131.60  7.6701304E-02
   7131.80  7.5393027E-02
   7132.00  7.4136299E-02
   7133.00  6.8853415E-02
   7134.00  6.5349017E-02
   7135.00  6.3302199E-02
   7136.00  6.2263681E-02
   7137.00  6.1906976E-02
   7138.00  6.2012195E-02
   7139.00  6.2350714E-02
   7140.00  6.2630904E-02
   7141.00  6.2573715E-02
   7142.00  6.2028221E-02
   7143.00  6.0992155E-02
   7144.00  5.9542545E-02
   7145.00  5.7776968E-02
   7146.00  5.5804945E-02
   7147.00  5.3759083E-02
   7148.00  5.1791316E-02
   7149.00  5.0049734E-02
   7150.00  4.8652425E-02
   7151.00  4.7671825E-02
   7152.00  4.7132321E-02
   7153.00  4.7018685E-02
   7154.00  4.7290497E-02
   7155.00  4.7895777E-02
   7156.00  4.8778693E-02
   7157.00  4.9881311E-02
   7158.00  5.1143307E-02
   7159.00  5.2502658E-02
   7160.00  5.3897571E-02
   7161.00  5.5269307E-02
   7162.00  5.6566311E-02
   7163.00  5.7749536E-02
   7164.00  5.8797203E-02
   7165.00  5.9706556E-02
   7166.00  6.0491245E-02
   7167.00  6.1175016E-02
   7168.00  6.1784116E-02
   7169.00  6.2341211E-02
   7170.00  6.2862631E-02
   7171.00  6.3359169E-02
   7172.00  6.3839249E-02
   7173.00  6.4312330E-02
   7174.00  6.4790176E-02
   7175.00  6.5284827E-02
   7176.00  6.5804271E-02
   7177.00  6.6348285E-02
   7178.00  6.6906599E-02
   7179.00  6.7459928E-02
   7180.00  6.7983112E-02
   7181.00  6.8449231E-02
   7182.00  6.8833902E-02
   7183.00  6.9119136E-02
   7184.00  6.9296054E-02
   7185.00  6.9365706E-02
   7186.00  6.9337616E-02
   7187.00  6.9226393E-02
   7188.00  6.9047418E-02
   7189.00  6.8812972E-02
   7190.00  6.8529976E-02
   7191.00  6.8199886E-02
   7192.00  6.7820376E-02
   7193.00  6.7387997E-02
   7194.00  6.6900880E-02
   7195.00  6.6360841E-02
   7196.00  6.5774429E-02
   7197.00  6.5152661E-02
   7198.00  6.4509569E-02
   7199.00  6.3860126E-02
   7200.00  6.3218333E-02
   7201.00  6.2596089E-02
   7202.00  6.2002903E-02
   7203.00  6.1446096E-02
   7204.00  6.0930968E-02
   7205.00  6.0460728E-02
   7206.00  6.0036387E-02
   7207.00  5.9656920E-02
   7208.00  5.9319848E-02
   7209.00  5.9022009E-02
   7210.00  5.8760123E-02
   7211.00  5.8530976E-02
   7212.00  5.8331331E-02
