    Energy    <xanes>    
   9619.00  3.5799841E-03
   9619.50  3.6298310E-03
   9620.00  3.6809875E-03
   9620.50  3.7335048E-03
   9621.00  3.7874371E-03
   9621.50  3.8428413E-03
   9622.00  3.8997774E-03
   9622.50  3.9583087E-03
   9623.00  4.0185018E-03
   9623.50  4.0804272E-03
   9624.00  4.1441594E-03
   9624.50  4.2097771E-03
   9625.00  4.2773635E-03
   9625.50  4.3470068E-03
   9626.00  4.4188004E-03
   9626.50  4.4928434E-03
   9627.00  4.5692410E-03
   9627.50  4.6481049E-03
   9628.00  4.7295538E-03
   9628.50  4.8137143E-03
   9629.00  4.9007209E-03
   9629.50  4.9907172E-03
   9630.00  5.0838563E-03
   9630.50  5.1803020E-03
   9631.00  5.2802292E-03
   9631.50  5.3838253E-03
   9632.00  5.4912909E-03
   9632.50  5.6028416E-03
   9633.00  5.7187086E-03
   9633.50  5.8391407E-03
   9634.00  5.9644060E-03
   9634.50  6.0947931E-03
   9635.00  6.2306140E-03
   9635.50  6.3722057E-03
   9636.00  6.5199332E-03
   9636.50  6.6741923E-03
   9637.00  6.8354126E-03
   9637.50  7.0040615E-03
   9638.00  7.1806481E-03
   9638.50  7.3657282E-03
   9639.00  7.5599091E-03
   9639.50  7.7638562E-03
   9640.00  7.9782999E-03
   9640.50  8.2040432E-03
   9641.00  8.4419710E-03
   9641.50  8.6930607E-03
   9642.00  8.9583946E-03
   9642.50  9.2391735E-03
   9643.00  9.5367336E-03
   9643.50  9.8525655E-03
   9644.00  1.0188337E-02
   9644.50  1.0545920E-02
   9645.00  1.0927421E-02
   9645.50  1.1335220E-02
   9646.00  1.1772016E-02
   9646.50  1.2240878E-02
   9647.00  1.2745314E-02
   9647.50  1.3289350E-02
   9648.00  1.3877629E-02
   9648.50  1.4515530E-02
   9649.00  1.5209324E-02
   9649.50  1.5966362E-02
   9650.00  1.6795323E-02
   9650.50  1.7706527E-02
   9651.00  1.8712351E-02
   9651.50  1.9827782E-02
   9652.00  2.1071163E-02
   9652.50  2.2465247E-02
   9653.00  2.4038691E-02
   9653.50  2.5828295E-02
   9654.00  2.7882485E-02
   9654.10  2.8330464E-02
   9654.20  2.8792207E-02
   9654.30  2.9268390E-02
   9654.40  2.9759743E-02
   9654.50  3.0267053E-02
   9654.60  3.0791169E-02
   9654.70  3.1333011E-02
   9654.80  3.1893578E-02
   9654.90  3.2473958E-02
   9655.00  3.3075341E-02
   9655.10  3.3699029E-02
   9655.20  3.4346455E-02
   9655.30  3.5019200E-02
   9655.40  3.5719016E-02
   9655.50  3.6447848E-02
   9655.60  3.7207868E-02
   9655.70  3.8001509E-02
   9655.80  3.8831499E-02
   9655.90  3.9700915E-02
   9656.00  4.0613225E-02
   9656.10  4.1572346E-02
   9656.20  4.2582688E-02
   9656.30  4.3649204E-02
   9656.40  4.4777405E-02
   9656.50  4.5973363E-02
   9656.60  4.7243661E-02
   9656.70  4.8595329E-02
   9656.80  5.0035778E-02
   9656.90  5.1572822E-02
   9657.00  5.3214846E-02
   9657.10  5.4974076E-02
   9657.20  5.6864071E-02
   9657.30  5.8896546E-02
   9657.40  6.1083424E-02
   9657.50  6.3434995E-02
   9657.60  6.5956806E-02
   9657.70  6.8645181E-02
   9657.80  7.1481575E-02
   9657.90  7.4426785E-02
   9658.00  7.7417356E-02
   9658.10  8.0367849E-02
   9658.20  8.3182486E-02
   9658.30  8.5776409E-02
   9658.40  8.8100638E-02
   9658.50  9.0159926E-02
   9658.60  9.2014445E-02
   9658.70  9.3764834E-02
   9658.80  9.5528847E-02
   9658.90  9.7420005E-02
   9659.00  9.9534407E-02
   9659.10  1.0194618E-01
   9659.20  1.0470887E-01
   9659.30  1.0785939E-01
   9659.40  1.1142225E-01
   9659.50  1.1541264E-01
   9659.60  1.1983810E-01
   9659.70  1.2469921E-01
   9659.80  1.2999019E-01
   9659.90  1.3570058E-01
   9660.00  1.4181879E-01
   9660.10  1.4833760E-01
   9660.20  1.5526039E-01
   9660.30  1.6260668E-01
   9660.40  1.7041603E-01
   9660.50  1.7875017E-01
   9660.60  1.8769363E-01
   9660.70  1.9735261E-01
   9660.80  2.0785183E-01
   9660.90  2.1932943E-01
   9661.00  2.3193084E-01
   9661.10  2.4580226E-01
   9661.20  2.6108456E-01
   9661.30  2.7790726E-01
   9661.40  2.9638291E-01
   9661.50  3.1660247E-01
   9661.60  3.3863338E-01
   9661.70  3.6252292E-01
   9661.80  3.8830919E-01
   9661.90  4.1604001E-01
   9662.00  4.4579558E-01
   9662.10  4.7770702E-01
   9662.20  5.1196085E-01
   9662.30  5.4878184E-01
   9662.40  5.8839238E-01
   9662.50  6.3095138E-01
   9662.60  6.7647911E-01
   9662.70  7.2477571E-01
   9662.80  7.7534396E-01
   9662.90  8.2733144E-01
   9663.00  8.7951306E-01
   9663.10  9.3033716E-01
   9663.20  9.7805175E-01
   9663.30  1.0209077E+00
   9663.40  1.0574067E+00
   9663.50  1.0865361E+00
   9663.60  1.1079241E+00
   9663.70  1.1218708E+00
   9663.80  1.1292532E+00
   9663.90  1.1313397E+00
   9664.00  1.1295757E+00
   9664.20  1.1200685E+00
   9664.40  1.1099890E+00
   9664.60  1.1049914E+00
   9664.80  1.1076514E+00
   9665.00  1.1184374E+00
   9665.20  1.1362776E+00
   9665.40  1.1587902E+00
   9665.60  1.1825231E+00
   9665.80  1.2033545E+00
   9666.00  1.2170439E+00
   9666.20  1.2199496E+00
   9666.40  1.2098266E+00
   9666.60  1.1863671E+00
   9666.80  1.1511612E+00
   9667.00  1.1071159E+00
   9667.20  1.0576639E+00
   9667.40  1.0060717E+00
   9667.60  9.5500362E-01
   9667.80  9.0636421E-01
   9668.00  8.6134352E-01
   9668.20  8.2055147E-01
   9668.40  7.8415510E-01
   9668.60  7.5198679E-01
   9668.80  7.2363083E-01
   9669.00  6.9850454E-01
   9669.20  6.7594023E-01
   9669.40  6.5526251E-01
   9669.60  6.3585512E-01
   9669.80  6.1721604E-01
   9670.00  5.9899894E-01
   9670.20  5.8103224E-01
   9670.40  5.6330616E-01
   9670.60  5.4592886E-01
   9670.80  5.2906677E-01
   9671.00  5.1288977E-01
   9671.20  4.9753566E-01
   9671.40  4.8309714E-01
   9671.60  4.6962566E-01
   9671.80  4.5714315E-01
   9672.00  4.4565354E-01
   9672.20  4.3515003E-01
   9672.40  4.2561744E-01
   9672.60  4.1703125E-01
   9672.80  4.0935578E-01
   9673.00  4.0254317E-01
   9673.20  3.9653433E-01
   9673.40  3.9126163E-01
   9673.60  3.8665334E-01
   9673.80  3.8263871E-01
   9674.00  3.7915311E-01
   9674.20  3.7614222E-01
   9674.40  3.7356454E-01
   9674.60  3.7139206E-01
   9674.80  3.6960902E-01
   9675.00  3.6820941E-01
   9675.20  3.6719362E-01
   9675.40  3.6656503E-01
   9675.60  3.6632683E-01
   9675.80  3.6647942E-01
   9676.00  3.6701847E-01
   9676.20  3.6793359E-01
   9676.40  3.6920758E-01
   9676.60  3.7081632E-01
   9676.80  3.7272898E-01
   9677.00  3.7490881E-01
   9677.20  3.7731416E-01
   9677.40  3.7989991E-01
   9677.60  3.8261891E-01
   9677.80  3.8542365E-01
   9678.00  3.8826774E-01
   9678.20  3.9110726E-01
   9678.40  3.9390187E-01
   9678.60  3.9661565E-01
   9678.80  3.9921775E-01
   9679.00  4.0168271E-01
   9680.00  4.1145514E-01
   9681.00  4.1710877E-01
   9682.00  4.2065200E-01
   9683.00  4.2473021E-01
   9684.00  4.3100280E-01
   9685.00  4.3960956E-01
   9686.00  4.4970036E-01
   9687.00  4.6044668E-01
   9688.00  4.7174475E-01
   9689.00  4.8413815E-01
   9690.00  4.9819439E-01
   9691.00  5.1392178E-01
   9692.00  5.3059192E-01
   9693.00  5.4698821E-01
   9694.00  5.6188906E-01
   9695.00  5.7449253E-01
   9696.00  5.8455776E-01
   9697.00  5.9227251E-01
   9698.00  5.9801601E-01
   9699.00  6.0214950E-01
   9700.00  6.0489103E-01
   9701.00  6.0629886E-01
   9702.00  6.0633249E-01
   9703.00  6.0491622E-01
   9704.00  6.0196718E-01
   9705.00  5.9741347E-01
   9706.00  5.9123336E-01
   9707.00  5.8350919E-01
   9708.00  5.7446695E-01
   9709.00  5.6447618E-01
   9710.00  5.5399817E-01
   9711.00  5.4349444E-01
   9712.00  5.3333558E-01
   9713.00  5.2375704E-01
   9714.00  5.1487949E-01
   9715.00  5.0677018E-01
   9716.00  4.9950277E-01
   9717.00  4.9318743E-01
   9718.00  4.8796801E-01
   9719.00  4.8399671E-01
   9720.00  4.8139824E-01
   9721.00  4.8023320E-01
   9722.00  4.8047089E-01
   9723.00  4.8198075E-01
   9724.00  4.8454855E-01
   9725.00  4.8791725E-01
   9726.00  4.9184151E-01
   9727.00  4.9613545E-01
   9728.00  5.0069424E-01
   9729.00  5.0548432E-01
   9730.00  5.1051332E-01
   9731.00  5.1579699E-01
   9732.00  5.2133542E-01
   9733.00  5.2710141E-01
   9734.00  5.3303753E-01
   9735.00  5.3905729E-01
   9736.00  5.4504799E-01
   9737.00  5.5087369E-01
   9738.00  5.5637743E-01
   9739.00  5.6138330E-01
   9740.00  5.6570258E-01
   9741.00  5.6914962E-01
   9742.00  5.7156966E-01
   9743.00  5.7287275E-01
   9744.00  5.7306053E-01
   9745.00  5.7223300E-01
   9746.00  5.7057062E-01
   9747.00  5.6829707E-01
   9748.00  5.6563535E-01
   9749.00  5.6277089E-01
   9750.00  5.5983231E-01
   9751.00  5.5689263E-01
   9752.00  5.5398537E-01
   9753.00  5.5112499E-01
   9754.00  5.4832271E-01
   9755.00  5.4559455E-01
   9756.00  5.4296346E-01
   9757.00  5.4045852E-01
   9758.00  5.3811191E-01
   9759.00  5.3595377E-01
